5010 8 10
0.133296659533 0.103513113651 0.147412084122 0.337405699086 0.699983905356 0.479642127526 0.286166707829 0.18444154796
0 0 0 0 0 0 0 1 0 0
0.12419572603 0.106793147718 0.211461562038 0.355235188668 0.63615529728 0.500172359778 0.344915055018 0.168612771836
0 0 0 0 0 0 0 1 0 0
0.144704044072 0.134482517946 0.270674559426 0.241968810097 0.694066554486 0.480945954012 0.304651339649 0.15268182056
0 0 0 0 0 0 0 1 0 0
0.0946675144315 0.172876103585 0.107384731453 0.276679813638 0.900305508246 0.189059565678 0.119252603655 0.112044650325
0 0 0 0 0 0 0 1 0 0
0.0936245709785 0.175731748194 0.104948214192 0.258549344091 0.888217101403 0.243415273408 0.147917780454 0.11149267719
0 0 0 0 0 0 0 1 0 0
0.0751292205239 0.172431031172 0.110559908388 0.26617209557 0.902964843378 0.195386480401 0.137631681296 0.0953320361269
0 0 0 0 0 0 0 1 0 0
0.0721837898306 0.17572013484 0.0846544132217 0.322099105371 0.868216868836 0.228896280953 0.192238682356 0.0992369970259
0 0 0 0 0 0 0 1 0 0
0.0603042609941 0.143815803169 0.0738255900852 0.239851909789 0.928226240821 0.176102310133 0.11187599695 0.0870002184303
0 0 0 0 0 0 0 1 0 0
0.0539682799239 0.272990930655 0.105923701667 0.357459932186 0.850278656844 0.19141097263 0.135595599317 0.0746178367882
0 0 0 0 0 0 0 1 0 0
0.0660657100018 0.237570550371 0.0896393128765 0.27868676628 0.880042954787 0.215991989763 0.15506294031 0.0912215877776
0 0 0 0 0 0 0 1 0 0
0.0485374961812 0.265761219312 0.103775981251 0.289147670532 0.874948119151 0.205541665835 0.139335895618 0.0737778876607
0 0 0 0 0 0 0 1 0 0
0.0731378315073 0.238753479762 0.129591520818 0.323399964458 0.776323351195 0.390204631785 0.218085573 0.117333783694
0 0 0 0 0 0 0 1 0 0
0.173474389796 0.250375407952 0.185129796717 0.393077056721 0.80471642817 0.207638915905 0.119514172564 0.116060718662
0 0 0 0 0 0 0 1 0 0
0.0630029865795 0.120135531945 0.0921947980802 0.342602798711 0.887398990707 0.183042281783 0.162640092647 0.0910399571856
0 0 0 0 0 0 0 1 0 0
0.20676141704 0.223744212857 0.241386534726 0.375517645381 0.762412115145 0.291263192345 0.160841915727 0.126216798041
0 0 0 0 0 0 0 1 0 0
0.114672329712 0.273367801727 0.271776603812 0.393768443931 0.769397231636 0.228071701091 0.126235034558 0.152578200033
0 0 0 0 0 0 0 1 0 0
0.0854853606386 0.277626185351 0.264143324798 0.396597336974 0.756489095369 0.291270035283 0.134426132078 0.115630621994
0 0 0 0 0 0 0 1 0 0
0.0862141574591 0.262099681699 0.230725507105 0.359765845036 0.767197963595 0.326663065781 0.166680704421 0.134615087963
0 0 0 0 0 0 0 1 0 0
0.089905915517 0.315229820699 0.242805610977 0.351423288347 0.766362198602 0.290293229704 0.153123342016 0.122744684825
0 0 0 0 0 0 0 1 0 0
0.0677490559862 0.290896928832 0.21636987227 0.355427208289 0.784979126075 0.295137047914 0.146392432533 0.113647571303
0 0 0 0 0 0 0 1 0 0
0.0754540862641 0.300720325646 0.197386245638 0.37408512491 0.769063119825 0.31075575337 0.150223160397 0.119911373586
0 0 0 0 0 0 0 1 0 0
0.0676915917547 0.305078168245 0.214673130608 0.352058411171 0.786064725874 0.285540462517 0.147844511721 0.105006538561
0 0 0 0 0 0 0 1 0 0
0.0843216421765 0.272110718044 0.222720125442 0.383655764258 0.756551655345 0.325786761565 0.167070924663 0.125018010613
0 0 0 0 0 0 0 1 0 0
0.0692195236191 0.258295427007 0.193894984146 0.364132662752 0.798434061999 0.289144845498 0.141980341432 0.130553278725
0 0 0 0 0 0 0 1 0 0
0.0573567756465 0.162786984268 0.0931190680316 0.308978208251 0.897913467354 0.161872932066 0.159473545037 0.0904911679522
0 0 0 0 0 0 0 1 0 0
0.0650928989091 0.258944601225 0.180898983815 0.354635553374 0.796125670427 0.327001257758 0.143467822722 0.0942913999375
0 0 0 0 0 0 0 1 0 0
0.0697120974015 0.247762415003 0.206428693534 0.384204823929 0.759532837028 0.358088492454 0.167768297335 0.101312173018
0 0 0 0 0 0 0 1 0 0
0.0781455453694 0.25137540973 0.207374690085 0.36480171436 0.774506213234 0.340412553129 0.164342854926 0.108949390102
0 0 0 0 0 0 0 1 0 0
0.071406980014 0.200861687159 0.16486263846 0.324257441115 0.811279053975 0.358010243754 0.151592053184 0.113612761247
0 0 0 0 0 0 0 1 0 0
0.0749635593352 0.203476737691 0.163454821655 0.352045178769 0.792079499878 0.344040795562 0.174767289435 0.161328195858
0 0 0 0 0 0 0 1 0 0
0.0918260310727 0.335874456512 0.240621681423 0.339890172157 0.70050143704 0.395949562555 0.18868509242 0.149170450477
0 0 0 0 0 0 0 1 0 0
0.09266457959 0.32876603504 0.271045950859 0.375386103033 0.71632104471 0.307100447887 0.189275831603 0.160292455999
0 0 0 0 0 0 0 1 0 0
0.0806425545342 0.286065178577 0.204855640155 0.347386666774 0.746456095647 0.365006781447 0.194301017009 0.144362820718
0 0 0 0 0 0 0 1 0 0
0.0522648054593 0.286727289325 0.167789858152 0.362062106569 0.800771483645 0.305101634995 0.113745949381 0.0924842065355
0 0 0 0 0 0 0 1 0 0
0.0781417873737 0.271277414932 0.175722550248 0.419602103928 0.737282234572 0.356654552988 0.168824849264 0.118611515526
0 0 0 0 0 0 0 1 0 0
0.071196623149 0.0779453052768 0.183871988499 0.383530367939 0.839007212597 0.273341359163 0.121278948413 0.120805356685
0 0 0 0 0 0 0 1 0 0
0.0782955687032 0.257130324622 0.225438089396 0.357078973294 0.727494275386 0.407028691857 0.194730085078 0.128786614265
0 0 0 0 0 0 0 1 0 0
0.209016821672 0.274979924147 0.303650816712 0.451917425467 0.654418135193 0.280694053085 0.183553861142 0.208615830168
0 0 0 0 0 0 0 1 0 0
0.225550455286 0.318315182515 0.335361164349 0.489269087288 0.554859060868 0.291510993688 0.229873711548 0.224191717604
0 0 0 0 0 0 0 1 0 0
0.232808359783 0.32173868674 0.373671805255 0.453558370148 0.536048442302 0.309543310624 0.254321551358 0.221572170553
0 0 0 0 0 0 0 1 0 0
0.247283773782 0.310205492211 0.371564820341 0.429373261426 0.501669321653 0.37625199124 0.272424054057 0.229671374041
0 0 0 0 0 0 0 1 0 0
0.264782364032 0.335622173305 0.40695736586 0.445597261827 0.487457149125 0.344786764015 0.239517816669 0.198029466832
0 0 0 0 0 0 0 1 0 0
0.266376204849 0.365499145671 0.474307279497 0.429020652895 0.526340143985 0.292492828745 0.110477994689 0.107873011743
0 0 0 0 0 0 0 1 0 0
0.251494268897 0.491590978518 0.388122510717 0.561222942219 0.361302629046 0.281555331487 0.0828816263594 0.113120775813
0 0 0 0 0 0 0 1 0 0
0.111897651269 0.175918388971 0.523934872653 0.310183246964 0.681306349161 0.291636334501 0.164334270888 0.0978488272107
0 0 0 0 0 0 0 1 0 0
0.133119365403 0.176344906468 0.516985121673 0.301686224658 0.69415883645 0.266111221835 0.168375595799 0.108956415457
0 0 0 0 0 0 0 1 0 0
0.0804620471572 0.0758520406037 0.18075874436 0.385690968463 0.813298130967 0.3094127928 0.163287206917 0.149960801418
0 0 0 0 0 0 0 1 0 0
0.242124295615 0.256348215605 0.285325481888 0.260054199722 0.68853655377 0.411081876243 0.212229357075 0.196240682743
0 0 0 0 0 0 0 1 0 0
0.151169015844 0.298284920299 0.259198479781 0.156626670783 0.734295368174 0.423249166473 0.228940598723 0.160358743645
0 0 0 0 0 0 0 1 0 0
0.110826742372 0.265415553538 0.264133352796 0.304662045807 0.655539066174 0.494483503441 0.257387861938 0.119133173264
0 0 0 0 0 0 0 1 0 0
0.12660646731 0.298059684585 0.246072530297 0.220099831528 0.711910838119 0.44249628433 0.249580097333 0.145689302258
0 0 0 0 0 0 0 1 0 0
0.120432537267 0.270378570163 0.259699344771 0.279989873016 0.649151278059 0.50658361907 0.266106880006 0.133101981937
0 0 0 0 0 0 0 1 0 0
0.12444011158 0.248741235693 0.232572360436 0.275148854308 0.712542411056 0.462457629854 0.235259451453 0.126154290332
0 0 0 0 0 0 0 1 0 0
0.148210250326 0.248234960174 0.245428549575 0.265020472626 0.689741593691 0.446007480705 0.292925725188 0.159594746153
0 0 0 0 0 0 0 1 0 0
0.162624026627 0.285850814865 0.3173862725 0.257804574531 0.618253971952 0.432088770368 0.343224147453 0.194689491954
0 0 0 0 0 0 0 1 0 0
0.111074092343 0.332042645632 0.339214804526 0.331476422561 0.651911495246 0.407539055041 0.204878381034 0.139338060615
0 0 0 0 0 0 0 1 0 0
0.120391175598 0.256002536403 0.249591461605 0.298775661392 0.728366612366 0.422298965135 0.207992884671 0.127634221935
0 0 0 0 0 0 0 1 0 0
0.0836234677477 0.0817124786413 0.215127829216 0.372501320995 0.802615424679 0.326531416381 0.173227623625 0.143076462168
0 0 0 0 0 0 0 1 0 0
0.122661379301 0.30653564055 0.26610403723 0.340228643316 0.663445854465 0.437632051312 0.231374326687 0.138588980608
0 0 0 0 0 0 0 1 0 0
0.115869285987 0.231039247729 0.209884689291 0.28479979913 0.749631883806 0.423397123108 0.221205000521 0.133745762022
0 0 0 0 0 0 0 1 0 0
0.213817696325 0.217425129139 0.202634654604 0.306683323893 0.710664264239 0.396353796683 0.247418356244 0.220311075389
0 0 0 0 0 0 0 1 0 0
0.116208255401 0.231460850807 0.202647701955 0.280581774553 0.762712242068 0.398510217945 0.240778535759 0.120890989377
0 0 0 0 0 0 0 1 0 0
0.148543680075 0.269212940766 0.246239024144 0.295873474145 0.707290912513 0.433402262689 0.230683299778 0.12637902079
0 0 0 0 0 0 0 1 0 0
0.152594713796 0.28635821436 0.255724339314 0.258067189786 0.707275614351 0.42361388827 0.248032717008 0.146671280526
0 0 0 0 0 0 0 1 0 0
0.125551107726 0.269720569621 0.270792129573 0.247173162294 0.769335397308 0.353212949225 0.214758473742 0.119612879658
0 0 0 0 0 0 0 1 0 0
0.0994211889454 0.284555610498 0.25452132414 0.253866730719 0.725751576004 0.44512352603 0.208699784696 0.107276309993
0 0 0 0 0 0 0 1 0 0
0.0908679335202 0.106012589107 0.266654114437 0.345244059321 0.710122082849 0.472729606528 0.227494362135 0.103470450491
0 0 0 0 0 0 0 1 0 0
0.0983638968076 0.114614825658 0.181392410052 0.411880936138 0.673326337252 0.510874270331 0.215897023069 0.116903688876
0 0 0 0 0 0 0 1 0 0
0.117101263528 0.0721709205713 0.218339873627 0.425260297796 0.766930225564 0.300061606472 0.212733962075 0.170544286989
0 0 0 0 0 0 0 1 0 0
0.153705811822 0.199018398733 0.281570873544 0.513082899955 0.62338274222 0.386394261707 0.171068199645 0.164496454721
0 0 0 0 0 0 0 1 0 0
0.134695322421 0.152577892189 0.205223776854 0.400930219658 0.713399323885 0.453576104324 0.160041485733 0.124226254967
0 0 0 0 0 0 0 1 0 0
0.168869134111 0.188132595961 0.202720880554 0.430679060566 0.694436977545 0.427605564405 0.160557707874 0.136532491409
0 0 0 0 0 0 0 1 0 0
0.188065044851 0.20516652184 0.305880908778 0.435012420652 0.651340984359 0.399119799786 0.187143408367 0.145516160486
0 0 0 0 0 0 0 1 0 0
0.171610584203 0.165554979053 0.249701561918 0.413308215837 0.691128848625 0.422733896896 0.187513129901 0.135803527665
0 0 0 0 0 0 0 1 0 0
0.163525610138 0.252700007609 0.332509916903 0.441825022616 0.614668063202 0.421637256644 0.175948850736 0.130679314922
0 0 0 0 0 0 0 1 0 0
0.147940279209 0.176111410808 0.207964314062 0.395734668443 0.662495760139 0.498099077322 0.213319618287 0.121386895761
0 0 0 0 0 0 0 1 0 0
0.1592304382 0.166595860273 0.204921022583 0.35341542183 0.662076541743 0.534367613261 0.199240908951 0.128083441469
0 0 0 0 0 0 0 1 0 0
0.124786596159 0.159980064379 0.207405408749 0.365990610059 0.707195576341 0.481603299106 0.191364483448 0.114807960353
0 0 0 0 0 0 0 1 0 0
0.0946634575822 0.0906597977251 0.260122400522 0.366565857299 0.787720076879 0.330725402232 0.169770576632 0.148597375464
0 0 0 0 0 0 0 1 0 0
0.134090922152 0.166932722226 0.229054532254 0.398134804405 0.665583338978 0.479165529627 0.239163730682 0.115653420356
0 0 0 0 0 0 0 1 0 0
0.172810144034 0.160826510291 0.220068679156 0.358710103389 0.652216948306 0.517201341463 0.228918131767 0.147921058567
0 0 0 0 0 0 0 1 0 0
0.163927419783 0.176869058187 0.249840455948 0.342862279406 0.667132345893 0.485827890507 0.247653136781 0.139441596888
0 0 0 0 0 0 0 1 0 0
0.144867651989 0.152624675323 0.23601267616 0.336382268619 0.649755528837 0.540528254327 0.239052590709 0.12395513638
0 0 0 0 0 0 0 1 0 0
0.134819265394 0.168671850965 0.239171203773 0.341212568852 0.686885081517 0.491077427833 0.228639288262 0.12041848296
0 0 0 0 0 0 0 1 0 0
0.285007817752 0.260664387949 0.366574115012 0.35285327276 0.553481072144 0.454558225583 0.165598552344 0.227057808884
0 0 0 0 0 0 0 1 0 0
0.178468754462 0.181668001302 0.249541253481 0.364468043792 0.658798753027 0.486383957969 0.224784004862 0.137567614099
0 0 0 0 0 0 0 1 0 0
0.154871295753 0.163449144455 0.288826741245 0.365557360461 0.628474298433 0.508560673762 0.244762449964 0.136834312522
0 0 0 0 0 0 0 1 0 0
0.140981259383 0.147802933224 0.226125855103 0.310449323417 0.644585014338 0.543775834241 0.286573464973 0.132138348848
0 0 0 0 0 0 0 1 0 0
0.146715948954 0.139193702667 0.240904759304 0.314905660814 0.657457184051 0.532986510443 0.254406226999 0.144401411635
0 0 0 0 0 0 0 1 0 0
0.078544704382 0.0842981847852 0.255383419474 0.355099638823 0.768121956762 0.391495250812 0.192709270587 0.12243923465
0 0 0 0 0 0 0 1 0 0
0.13995117577 0.170965996774 0.258063816419 0.315325890901 0.610453700024 0.566058931446 0.278108105696 0.121393547334
0 0 0 0 0 0 0 1 0 0
0.156029769763 0.186643631446 0.283733307068 0.363867613143 0.574396785023 0.509333918546 0.345633862559 0.138199718453
0 0 0 0 0 0 0 1 0 0
0.138225845804 0.16367180722 0.23267899898 0.322620956781 0.598367774112 0.582226153159 0.288223092042 0.125608596238
0 0 0 0 0 0 0 1 0 0
0.137282264386 0.165829608321 0.254871820051 0.347810071276 0.600273430548 0.549554080032 0.296878209515 0.13133194952
0 0 0 0 0 0 0 1 0 0
0.128839029667 0.141240320811 0.239106667671 0.336117753072 0.583349404596 0.605708382717 0.268124467145 0.119308973419
0 0 0 0 0 0 0 1 0 0
0.175439234485 0.181715856312 0.296072844235 0.332201691826 0.546984628983 0.576224501397 0.287729529855 0.155461206474
0 0 0 0 0 0 0 1 0 0
0.143771505749 0.193208982255 0.279706255964 0.343425670127 0.589074997831 0.536561411676 0.302337634097 0.139670026217
0 0 0 0 0 0 0 1 0 0
0.13150968708 0.155072997821 0.251272472936 0.317096824768 0.48760066325 0.661093358257 0.324951261681 0.120735901934
0 0 0 0 0 0 0 1 0 0
0.157381331156 0.15367683513 0.247245234746 0.350134624363 0.646673556225 0.516358946031 0.2554907259 0.13342160686
0 0 0 0 0 0 0 1 0 0
0.145521226811 0.165087932308 0.241289926077 0.328111036398 0.671364146396 0.497967738639 0.26646116531 0.126446147081
0 0 0 0 0 0 0 1 0 0
0.0903042931935 0.0778886315814 0.213580811782 0.337423107355 0.765810581053 0.400004328291 0.245075730605 0.140627012791
0 0 0 0 0 0 0 1 0 0
0.171399311905 0.137970586805 0.226291498877 0.338974673706 0.688249342047 0.468063828013 0.267861537101 0.144755014408
0 0 0 0 0 0 0 1 0 0
0.162511748808 0.146865346226 0.228426380964 0.320251899665 0.684280436343 0.486980409453 0.27481075174 0.127945405514
0 0 0 0 0 0 0 1 0 0
0.173096090291 0.146330784389 0.241869492135 0.321648705093 0.634513429485 0.53974977886 0.26713635427 0.146175772965
0 0 0 0 0 0 0 1 0 0
0.242763498029 0.185615294936 0.262674862908 0.271932354631 0.68660592242 0.434481497006 0.274156221358 0.168238103769
0 0 0 0 0 0 0 1 0 0
0.263429997528 0.163741053291 0.23831152339 0.300741397655 0.626391948831 0.491223159873 0.300584407192 0.180382042408
0 0 0 0 0 0 0 1 0 0
0.16727690238 0.209456137971 0.345191519463 0.324891601013 0.696096745951 0.382446747375 0.245503590414 0.111115343097
0 0 0 0 0 0 0 1 0 0
0.127417261539 0.169861243872 0.259014935408 0.393555960815 0.735709912875 0.36791894234 0.214608718715 0.101225698571
0 0 0 0 0 0 0 1 0 0
0.0964288056313 0.185363877101 0.227451327457 0.328781695056 0.7400887267 0.427331368846 0.241590448517 0.0883223762234
0 0 0 0 0 0 0 1 0 0
0.111486243984 0.200760465157 0.264573422774 0.341596408346 0.712755580863 0.422348030839 0.248593550249 0.111273179017
0 0 0 0 0 0 0 1 0 0
0.102077432106 0.117044797517 0.227154715727 0.369195013482 0.640303892301 0.458051272808 0.370941206113 0.174868719223
0 0 0 0 0 0 0 1 0 0
0.16086019693 0.0681606403125 0.241263150577 0.321774683498 0.789425623882 0.352665487431 0.181680273043 0.164796195674
0 0 0 0 0 0 0 1 0 0
0.092741860435 0.173299452989 0.258371751945 0.299983202522 0.756349307536 0.412034951786 0.226496836863 0.107156284491
0 0 0 0 0 0 0 1 0 0
0.15020370045 0.195977641706 0.25366604598 0.309521455944 0.72871707147 0.405295408671 0.256975619041 0.132484755448
0 0 0 0 0 0 0 1 0 0
0.10101441051 0.170278494334 0.238564853349 0.341123039873 0.746467161925 0.406733520464 0.233264555702 0.102300890522
0 0 0 0 0 0 0 1 0 0
0.15950933805 0.228233004151 0.329790735293 0.258736575616 0.660772611746 0.43901320086 0.310836054213 0.144179869198
0 0 0 0 0 0 0 1 0 0
0.111837279457 0.159788051394 0.234537657947 0.321825290694 0.763623221353 0.394325709341 0.226593717686 0.11585710465
0 0 0 0 0 0 0 1 0 0
0.189628456811 0.169955334776 0.238019227116 0.238223623189 0.749980291194 0.399798718969 0.275321510455 0.153756945984
0 0 0 0 0 0 0 1 0 0
0.121391370928 0.174404702239 0.227163650962 0.304648587225 0.712220369499 0.447560725086 0.2976276278 0.119508939778
0 0 0 0 0 0 0 1 0 0
0.136480267001 0.217796563028 0.26786954806 0.344094858143 0.686167269815 0.430362661045 0.261732469114 0.138711932072
0 0 0 0 0 0 0 1 0 0
0.179903771461 0.226498645903 0.323027441164 0.236718151481 0.689310710393 0.411916903048 0.27122163071 0.193816464698
0 0 0 0 0 0 0 1 0 0
0.0999358691948 0.0828847377917 0.185321439592 0.334656872338 0.777693983708 0.405232317174 0.218871570524 0.140988497944
0 0 0 0 0 0 0 1 0 0
0.17866250706 0.164901769988 0.22380499105 0.25555005776 0.736085895889 0.437800347752 0.266949216192 0.144010882025
0 0 0 0 0 0 0 1 0 0
0.118766887787 0.183507859924 0.230073292319 0.322403031391 0.713953226371 0.446477377064 0.27478612149 0.103745780563
0 0 0 0 0 0 0 1 0 0
0.172824368224 0.193084616222 0.247019177513 0.345203456273 0.679330568173 0.435205711802 0.284756672411 0.143825496777
0 0 0 0 0 0 0 1 0 0
0.117334968244 0.154275639079 0.229378159951 0.30234361722 0.709352468472 0.466388689908 0.290131825208 0.11631731891
0 0 0 0 0 0 0 1 0 0
0.136461904644 0.147398251522 0.211130755744 0.293234167776 0.722122135747 0.43880071588 0.311982190996 0.133229486847
0 0 0 0 0 0 0 1 0 0
0.0942609752174 0.192247478963 0.248436614704 0.320905799765 0.74612639831 0.41812678395 0.219448940679 0.098803057943
0 0 0 0 0 0 0 1 0 0
0.0902393173711 0.194180616981 0.265735413117 0.318098207195 0.740599060204 0.423700353137 0.214110772965 0.0921769714251
0 0 0 0 0 0 0 1 0 0
0.0959692851401 0.208999776527 0.228243230085 0.31374764744 0.749601951219 0.429456351436 0.205230440264 0.0901168946251
0 0 0 0 0 0 0 1 0 0
0.112959707303 0.182616036931 0.219536048177 0.315674722319 0.749484854453 0.42151783867 0.237176567568 0.101918208613
0 0 0 0 0 0 0 1 0 0
0.157125590469 0.187185708224 0.232953366643 0.19561659267 0.702674071462 0.46184184257 0.335328392052 0.168065666714
0 0 0 0 0 0 0 1 0 0
0.106090572523 0.0912953902346 0.261019270467 0.298077345535 0.77005067247 0.410653957687 0.220174750643 0.115486565066
0 0 0 0 0 0 0 1 0 0
0.0686328899223 0.153650475902 0.172179949769 0.339261657203 0.816773582426 0.343621533407 0.183993807871 0.0888148975122
0 0 0 0 0 0 0 1 0 0
0.0770742212744 0.0863539575158 0.200978739395 0.268711565051 0.78177924123 0.456279389944 0.215098736733 0.0914716858084
0 0 0 0 0 0 0 1 0 0
0.0909557980026 0.165197726781 0.201536913417 0.311524956052 0.600836640748 0.585201085667 0.337781905445 0.0959699587698
0 0 0 0 0 0 0 1 0 0
0.0670656855517 0.09875255042 0.276635051456 0.252099534072 0.728710680418 0.515013300925 0.199859812817 0.0972990245086
0 0 0 0 0 0 0 1 0 0
0.0788253593507 0.187982793047 0.229867679409 0.332226544718 0.595421471959 0.565992703902 0.333700360243 0.094894702813
0 0 0 0 0 0 0 1 0 0
0.106722140513 0.166936388837 0.217603047204 0.30944734815 0.600502406443 0.580352891439 0.330534049898 0.104730618681
0 0 0 0 0 0 0 1 0 0
0.0772606025667 0.172066020491 0.223432166657 0.321091259368 0.574222782141 0.590446451764 0.351900377901 0.0959680261705
0 0 0 0 0 0 0 1 0 0
0.100875421533 0.139550556706 0.19796334707 0.311694916984 0.51264558484 0.659717788524 0.352877267816 0.107010098147
0 0 0 0 0 0 0 1 0 0
0.0735112787218 0.128914810691 0.175933221294 0.307625924952 0.613502806184 0.593800343097 0.338285632523 0.0947055732169
0 0 0 0 0 0 0 1 0 0
0.0936971544205 0.121788059899 0.161249093785 0.310216016777 0.612345257735 0.586686465285 0.351987558041 0.105310494131
0 0 0 0 0 0 0 1 0 0
0.0837203800618 0.127890856533 0.149508536799 0.302592516899 0.661126969752 0.544897559062 0.34527780923 0.0974720850654
0 0 0 0 0 0 0 1 0 0
0.122509748876 0.150159760419 0.321492325646 0.553278820392 0.578491173487 0.376653053963 0.247387508816 0.123484812255
0 0 0 0 0 0 0 1 0 0
0.118661253339 0.17414974672 0.280273512487 0.35897657963 0.549546390718 0.549465503702 0.357116178249 0.129338339529
0 0 0 0 0 0 0 1 0 0
0.110197506793 0.163535112821 0.251520597697 0.368403276135 0.607919318297 0.516195887985 0.338140294817 0.108472301207
0 0 0 0 0 0 0 1 0 0
0.0704965898795 0.095042331598 0.239176146633 0.260886169122 0.759759312296 0.475790998478 0.214569421705 0.105257019145
0 0 0 0 0 0 0 1 0 0
0.119440998755 0.197722225507 0.356873343917 0.472224252121 0.570697065139 0.417396329416 0.294020560004 0.0996118255762
0 0 0 0 0 0 0 1 0 0
0.110037881304 0.180907435951 0.33439025497 0.359642625016 0.58738913444 0.498937956563 0.326176446433 0.116826152822
0 0 0 0 0 0 0 1 0 0
0.0945398362003 0.162203010738 0.386882471832 0.358768069172 0.515312835349 0.538240513829 0.344681397818 0.110925169407
0 0 0 0 0 0 0 1 0 0
0.144808865377 0.152462610905 0.284290723868 0.362909997925 0.586705517144 0.562091071528 0.253798201687 0.136665280136
0 0 0 0 0 0 0 1 0 0
0.154259248745 0.162708372456 0.231556182498 0.367244090017 0.590769422256 0.546934364586 0.28819040777 0.173332518113
0 0 0 0 0 0 0 1 0 0
0.184828147561 0.205098074191 0.242999238779 0.361980109889 0.554484442682 0.495233887916 0.222729312148 0.362459871466
0 0 0 0 0 0 0 1 0 0
0.197278036844 0.192207531414 0.231356550082 0.379462476129 0.531105964103 0.540657381308 0.232535737391 0.313310068078
0 0 0 0 0 0 0 1 0 0
0.11768025883 0.0839432743741 0.223727074745 0.259037995596 0.771479750708 0.480598056464 0.157553314158 0.104746607589
0 0 0 0 0 0 0 1 0 0
0.197194988583 0.189977698564 0.239218241758 0.315931050185 0.561202502927 0.5141737099 0.243641742092 0.35958401401
0 0 0 0 0 0 0 1 0 0
0.184168798527 0.177177812106 0.236164260032 0.360035800679 0.535575100342 0.494503055119 0.250692403688 0.393789156992
0 0 0 0 0 0 0 1 0 0
0.178133390643 0.175492747421 0.226875263438 0.412160396138 0.462662697747 0.556735612509 0.235457353907 0.369690050994
0 0 0 0 0 0 0 1 0 0
0.197647575835 0.198304212299 0.237439745587 0.401992843608 0.459382870611 0.524389880603 0.297193663863 0.359574127997
0 0 0 0 0 0 0 1 0 0
0.185889193013 0.1826023507 0.208166679798 0.369100218215 0.466366403688 0.579579861122 0.282424969083 0.345483647525
0 0 0 0 0 0 0 1 0 0
0.193646495123 0.165967203499 0.249547809578 0.415297920594 0.456871131151 0.513098084331 0.281460404627 0.385990435346
0 0 0 0 0 0 0 1 0 0
0.198222157071 0.175794735871 0.217364753953 0.425441383975 0.471995273436 0.509147769161 0.282834700689 0.373563813725
0 0 0 0 0 0 0 1 0 0
0.172545927488 0.155341059791 0.215408921579 0.415502527404 0.539417354869 0.530267945457 0.224856681298 0.323013932266
0 0 0 0 0 0 0 1 0 0
0.197650808341 0.13857953276 0.252056106387 0.398941079158 0.496739968271 0.527348780894 0.276039230912 0.343509266054
0 0 0 0 0 0 0 1 0 0
0.188688839992 0.162003447254 0.237752140814 0.388829285529 0.514271643519 0.505761734811 0.263912230546 0.374856225552
0 0 0 0 0 0 0 1 0 0
0.127856424304 0.07853703577 0.25040692387 0.246854057966 0.774548141164 0.471152092267 0.150505944441 0.096348113525
0 0 0 0 0 0 0 1 0 0
0.190235173532 0.145005790437 0.226535150523 0.384837991355 0.479955578121 0.566531993831 0.273123356286 0.342714488644
0 0 0 0 0 0 0 1 0 0
0.178590615365 0.133812539945 0.241540764111 0.355268380906 0.526381492414 0.51855619768 0.297100356719 0.362485041605
0 0 0 0 0 0 0 1 0 0
0.146875957492 0.126447360876 0.245789122928 0.337435198659 0.610435535262 0.528155930708 0.221484745135 0.295851296455
0 0 0 0 0 0 0 1 0 0
0.166470419736 0.156072452888 0.226696267322 0.31914551712 0.600611273186 0.520516043405 0.24677154985 0.319557317787
0 0 0 0 0 0 0 1 0 0
0.158573891008 0.147383650851 0.221348408963 0.337162845711 0.579163161305 0.549686431135 0.24827776739 0.302045506681
0 0 0 0 0 0 0 1 0 0
0.137538342334 0.0904119615446 0.23516064014 0.232026735817 0.780247923541 0.461720715785 0.168547500894 0.115718828029
0 0 0 0 0 0 0 1 0 0
0.154978929033 0.111503195948 0.246630474454 0.314472407874 0.605877321522 0.561535784364 0.212616743023 0.27606781293
0 0 0 0 0 0 0 1 0 0
0.153254103348 0.106469461249 0.252556799569 0.252442131329 0.559466345107 0.642199480585 0.221309704049 0.251524785405
0 0 0 0 0 0 0 1 0 0
0.164072279985 0.124362899551 0.236162379304 0.311168986791 0.591677246693 0.57866513333 0.237284113215 0.252539694398
0 0 0 0 0 0 0 1 0 0
0.107283974952 0.0861630479147 0.246173985471 0.243224375885 0.758932393551 0.504383239255 0.148104849227 0.0948181067007
0 0 0 0 0 0 0 1 0 0
0.155601633799 0.105013221306 0.174328449735 0.275245180055 0.668378267373 0.535599940495 0.229533542546 0.26893788441
0 0 0 0 0 0 0 1 0 0
0.208471094726 0.101638202576 0.169032464675 0.304504500657 0.567588187083 0.586999921806 0.25365122378 0.306349982479
0 0 0 0 0 0 0 1 0 0
0.182250255649 0.116674229084 0.225186939709 0.277207748662 0.571377261771 0.602532971362 0.23363233707 0.285511206571
0 0 0 0 0 0 0 1 0 0
0.138716760446 0.118690335674 0.316135614513 0.287417369019 0.621054082013 0.539127798854 0.229217407291 0.234972802093
0 0 0 0 0 0 0 1 0 0
0.195613294621 0.104850269725 0.178631410445 0.309083157071 0.586260955993 0.564518998222 0.272739351921 0.294159683098
0 0 0 0 0 0 0 1 0 0
0.21463896656 0.0981315437286 0.142548979311 0.310976415583 0.587212633691 0.581884716081 0.2438337804 0.290534609244
0 0 0 0 0 0 0 1 0 0
0.213624081208 0.0993811124399 0.167044848569 0.327625393776 0.528200040159 0.605771680507 0.280985747087 0.290410338905
0 0 0 0 0 0 0 1 0 0
0.227672451171 0.100771131244 0.16398743974 0.303016448137 0.472569735242 0.647044403175 0.253099585451 0.336528708062
0 0 0 0 0 0 0 1 0 0
0.224265014526 0.108116207176 0.160068992171 0.312234942235 0.508385856153 0.602509792059 0.307635630845 0.314307871312
0 0 0 0 0 0 0 1 0 0
0.235978502606 0.107084332989 0.200414714952 0.303110882614 0.546162845748 0.543870520577 0.326754579378 0.316144388587
0 0 0 0 0 0 0 1 0 0
0.102873611375 0.109178924661 0.222820071031 0.351302954828 0.679082240859 0.463780043361 0.312355519687 0.17499669488
0 0 0 0 0 0 0 1 0 0
0.117425769624 0.0831647134501 0.256552400163 0.235114579986 0.767859755445 0.488970812581 0.1434229626 0.0944754652003
0 0 0 0 0 0 0 1 0 0
0.279547679326 0.0981411796269 0.16462179091 0.327795489297 0.499065341335 0.583910398706 0.288302056852 0.323319566953
0 0 0 0 0 0 0 1 0 0
0.231373753157 0.0995148901604 0.158844844373 0.293578727177 0.481892524578 0.631132189139 0.315272058453 0.308541898449
0 0 0 0 0 0 0 1 0 0
0.239909680711 0.110026341953 0.207395299976 0.253554108341 0.571788609789 0.586187835543 0.294661575414 0.256224932473
0 0 0 0 0 0 0 1 0 0
0.208840937686 0.103857771936 0.194478769018 0.275453533412 0.613071677478 0.559052774428 0.276096615592 0.259376478933
0 0 0 0 0 0 0 1 0 0
0.183624356206 0.105658123204 0.196429489944 0.286443902966 0.583358999037 0.549169922753 0.323156158312 0.296915096071
0 0 0 0 0 0 0 1 0 0
0.16387086922 0.120392424846 0.287631342574 0.247337234971 0.601778412492 0.566566996273 0.266075832124 0.246602388023
0 0 0 0 0 0 0 1 0 0
0.246519391387 0.10600454495 0.249234362658 0.243502756642 0.562723045391 0.560973397238 0.306369424734 0.285252981517
0 0 0 0 0 0 0 1 0 0
0.168239198584 0.114515231452 0.314088198992 0.263053557339 0.559192072318 0.567197506303 0.294950208372 0.263303727151
0 0 0 0 0 0 0 1 0 0
0.142400242861 0.0758285034421 0.225069772833 0.223808458567 0.760508368043 0.515236188739 0.132117324858 0.109221264191
0 0 0 0 0 0 0 1 0 0
0.182976968572 0.103827602013 0.181314704008 0.227474512292 0.592149784386 0.595218580505 0.299910887341 0.276127717422
0 0 0 0 0 0 0 1 0 0
0.161078417556 0.109714607972 0.259840448484 0.25656726454 0.565127797114 0.599999795287 0.277842960176 0.268526975104
0 0 0 0 0 0 0 1 0 0
0.141687503343 0.0970204641632 0.215272553448 0.187644565315 0.655600333184 0.592604220166 0.230752826954 0.233924132985
0 0 0 0 0 0 0 1 0 0
0.196600272974 0.0979818757387 0.252741468991 0.176571063209 0.639110017541 0.611018202149 0.196430533908 0.190532101372
0 0 0 0 0 0 0 1 0 0
0.13042849947 0.112989183249 0.318450707134 0.207024711893 0.596063127542 0.618094308539 0.217722779828 0.203019042621
0 0 0 0 0 0 0 1 0 0
0.156590279899 0.0970195082304 0.246467247647 0.188533308172 0.673829253226 0.564855909881 0.225238030099 0.214325815472
0 0 0 0 0 0 0 1 0 0
0.0763809731467 0.0799602557574 0.250159732718 0.258878498052 0.760528722407 0.502935095036 0.142047042581 0.081543399989
0 0 0 0 0 0 0 1 0 0
0.178538879422 0.10383543958 0.310101238366 0.205750602649 0.604746592626 0.593412277616 0.222143207003 0.227248332359
0 0 0 0 0 0 0 1 0 0
0.270679553493 0.0763914150506 0.172307393403 0.16614612396 0.502101829387 0.701593742696 0.250197495615 0.238041477526
0 0 0 0 0 0 0 1 0 0
0.22272554396 0.087965245609 0.218944125557 0.191150700292 0.633198511649 0.570332430692 0.263375791797 0.250188095115
0 0 0 0 0 0 0 1 0 0
0.224538135979 0.0895375491366 0.26278979529 0.186107311987 0.623224341514 0.577850886149 0.247381632757 0.233138040648
0 0 0 0 0 0 0 1 0 0
0.202634854046 0.0983574830345 0.286144093465 0.179731680888 0.568551864191 0.596598546576 0.296867824966 0.26032949999
0 0 0 0 0 0 0 1 0 0
0.257570933138 0.100073613545 0.25492890347 0.190981001711 0.592893025076 0.553100823138 0.311220311089 0.260536476643
0 0 0 0 0 0 0 1 0 0
0.190633754018 0.0990457141816 0.252537325381 0.174109887331 0.581113683304 0.618938227696 0.288022207234 0.236695860269
0 0 0 0 0 0 0 1 0 0
0.161913657871 0.105267141073 0.265552356983 0.174010655298 0.597987151664 0.621890353311 0.253280883631 0.231122441229
0 0 0 0 0 0 0 1 0 0
0.188030905019 0.0849223289919 0.197815318629 0.22211682417 0.564784005149 0.602007317794 0.328575498335 0.282152709851
0 0 0 0 0 0 0 1 0 0
0.0869571000243 0.0994204306382 0.270862780148 0.266439468656 0.703540702441 0.537380307242 0.205085536323 0.111311332706
0 0 0 0 0 0 0 1 0 0
0.24588973682 0.0850533308859 0.251208736071 0.164990291063 0.586508317449 0.589193145642 0.290164073445 0.258148763665
0 0 0 0 0 0 0 1 0 0
0.205366229134 0.0980167349424 0.316949609228 0.168581499996 0.586916742627 0.589147499716 0.274246544957 0.229267197942
0 0 0 0 0 0 0 1 0 0
0.190286468334 0.111256931295 0.34019816746 0.19630647316 0.602091008987 0.546869912087 0.288281283735 0.229031762553
0 0 0 0 0 0 0 1 0 0
0.273563680106 0.0974115537717 0.222231483858 0.256452948024 0.587693837491 0.526948138182 0.304560629411 0.291038470318
0 0 0 0 0 0 0 1 0 0
0.0902762321069 0.104811612405 0.295217740835 0.265092981329 0.700786716246 0.533715633423 0.188837385868 0.10873346881
0 0 0 0 0 0 0 1 0 0
0.292193766008 0.0769308198321 0.113007073853 0.246656454642 0.604121959713 0.544201929856 0.309921302752 0.279148974819
0 0 0 0 0 0 0 1 0 0
0.240287505676 0.0820162510892 0.150499005478 0.17713118774 0.511120493866 0.663847906431 0.317194725883 0.280996698563
0 0 0 0 0 0 0 1 0 0
0.219865272988 0.0809235091766 0.178207914454 0.170111368435 0.531980829377 0.664336283733 0.317946747563 0.242854429561
0 0 0 0 0 0 0 1 0 0
0.249399707599 0.0755721974182 0.120480183352 0.18952239302 0.563068242007 0.666860678885 0.257075307236 0.23198640693
0 0 0 0 0 0 0 1 0 0
0.165711376771 0.13045917925 0.356950206919 0.234956764759 0.607145298439 0.539158917505 0.265216348099 0.207953234145
0 0 0 0 0 0 0 1 0 0
0.137619439007 0.0864991043555 0.177211859934 0.200625450222 0.577468974712 0.710278491096 0.189852813604 0.167075246143
0 0 0 0 0 0 0 1 0 0
0.1448266747 0.106398738008 0.269928489409 0.192850489224 0.612137040088 0.633327936969 0.209243447189 0.195071757241
0 0 0 0 0 0 0 1 0 0
0.219746014051 0.0913820792521 0.255869821906 0.15629338719 0.544173846588 0.647396983997 0.286373417374 0.23707857744
0 0 0 0 0 0 0 1 0 0
0.0582928180773 0.202927880748 0.100700218365 0.324901228531 0.896720725535 0.131360185567 0.122973129322 0.0568764608968
0 0 0 0 0 0 0 1 0 0
0.189952974106 0.0888050574115 0.253709287679 0.157779859284 0.57956984837 0.598129515453 0.326359720441 0.258065590955
0 0 0 0 0 0 0 1 0 0
0.200779998355 0.0911205393231 0.255522280136 0.123082686274 0.635132895493 0.576717808863 0.284642375716 0.232217458899
0 0 0 0 0 0 0 1 0 0
0.265437166495 0.0858813764238 0.181767327661 0.180977492807 0.552199874039 0.583635301215 0.355267717187 0.290869848783
0 0 0 0 0 0 0 1 0 0
0.162778306783 0.103347201394 0.288579174535 0.177431371201 0.636891135197 0.584140103293 0.251860318994 0.194368589778
0 0 0 0 0 0 0 1 0 0
0.159308019483 0.100615591252 0.272697845115 0.140713863649 0.628995409432 0.598317518374 0.263080178304 0.217951126345
0 0 0 0 0 0 0 1 0 0
0.189011039845 0.0986929126044 0.301677351233 0.158982113319 0.558149369314 0.643794273783 0.256472018081 0.215569751441
0 0 0 0 0 0 0 1 0 0
0.197638343283 0.102962678721 0.200555001898 0.340184246063 0.532637418476 0.542452206195 0.356897162888 0.298425102085
0 0 0 0 0 0 0 1 0 0
0.18791330147 0.0803000246124 0.161255942075 0.195128122818 0.557274674892 0.64619500553 0.311268006724 0.262966183284
0 0 0 0 0 0 0 1 0 0
0.115940922154 0.174152386107 0.206854622544 0.36165262382 0.746849374781 0.359427981886 0.270293995043 0.150385794773
0 0 0 0 0 0 0 1 0 0
0.0553672020009 0.191393425299 0.102057834203 0.361922371903 0.882592893293 0.14213289999 0.122973201871 0.0678604447318
0 0 0 0 0 0 0 1 0 0
0.0867235465956 0.123765693583 0.183611793341 0.333303182811 0.775677024533 0.381347570785 0.269269378872 0.112915732749
0 0 0 0 0 0 0 1 0 0
0.0921088501226 0.0927621043788 0.160769310628 0.263639665077 0.767401842007 0.467042411372 0.260098339372 0.113459949759
0 0 0 0 0 0 0 1 0 0
0.0939863373568 0.114896043292 0.177925711287 0.282603048188 0.780571773937 0.401148629477 0.283290020046 0.126402821918
0 0 0 0 0 0 0 1 0 0
0.115979405767 0.211890102683 0.19927663708 0.357771078665 0.718161567119 0.385939808557 0.300547049412 0.137498864655
0 0 0 0 0 0 0 1 0 0
0.091758307771 0.12385425268 0.176580777392 0.286952609994 0.790614775249 0.396793638657 0.258430744949 0.11582141972
0 0 0 0 0 0 0 1 0 0
0.159171844716 0.0892284128241 0.153511682598 0.308034108431 0.746130656397 0.393179118584 0.307872389513 0.205342595711
0 0 0 0 0 0 0 1 0 0
0.0841686160394 0.149433050936 0.177502895663 0.331682450956 0.785464634659 0.376487815352 0.242603657996 0.107287365705
0 0 0 0 0 0 0 1 0 0
0.0875037692094 0.155074558318 0.189222370693 0.343249944197 0.75241966299 0.412834165639 0.256833428448 0.110175017283
0 0 0 0 0 0 0 1 0 0
0.0843702823188 0.194481064304 0.138388733751 0.408773773849 0.855536133461 0.11650320939 0.114209743069 0.101254098214
0 0 0 0 0 0 0 1 0 0
0.11058385637 0.11054333462 0.176391178739 0.31935191354 0.745478638929 0.426086203638 0.292161819138 0.140732038539
0 0 0 0 0 0 0 1 0 0
0.0727788194667 0.125100889678 0.1678240237 0.325734391991 0.793171112479 0.386947280148 0.239225946582 0.093314248527
0 0 0 0 0 0 0 1 0 0
0.0900868421468 0.101989986657 0.147754250333 0.289519962123 0.819098993964 0.360938829184 0.250409630161 0.10919841268
0 0 0 0 0 0 0 1 0 0
0.140887385057 0.0926656213377 0.168865274576 0.297314082 0.787194453263 0.359328767049 0.282701426327 0.16105997801
0 0 0 0 0 0 0 1 0 0
0.058972982387 0.217799006117 0.114028940114 0.416541376386 0.843528151866 0.131189238626 0.141945512693 0.11695116486
0 0 0 0 0 0 0 1 0 0
0.153626485629 0.0784317834883 0.156290333821 0.287830483171 0.804583312904 0.366430864646 0.225685265214 0.17439775761
0 0 0 0 0 0 0 1 0 0
0.141548370731 0.0948323813037 0.163631640137 0.284245789625 0.807098612103 0.360226599485 0.255124600213 0.130919675211
0 0 0 0 0 0 0 1 0 0
0.100684474058 0.147128295913 0.17654552609 0.302854177724 0.777070042982 0.400714934845 0.259908393268 0.115603814291
0 0 0 0 0 0 0 1 0 0
0.124942787717 0.156769794751 0.187227452069 0.327523554783 0.722228236538 0.431469646856 0.301588901072 0.136934971593
0 0 0 0 0 0 0 1 0 0
0.133557744581 0.117708518673 0.163735311082 0.319145776232 0.794422436973 0.329631880241 0.279322594974 0.147846061876
0 0 0 0 0 0 0 1 0 0
0.128341713126 0.109289120129 0.159697111148 0.309149863248 0.754396515165 0.390003706393 0.324899368515 0.154048352421
0 0 0 0 0 0 0 1 0 0
0.129493346424 0.123485723349 0.16201202875 0.306970159737 0.795293018641 0.348170826378 0.274606512845 0.135578487217
0 0 0 0 0 0 0 1 0 0
0.160048600514 0.116467459854 0.14993347157 0.302234313745 0.782954023311 0.413680078378 0.206319935041 0.14240092874
0 0 0 0 0 0 0 1 0 0
0.109591153025 0.123878185196 0.15901192056 0.266370724808 0.849494569125 0.329838117723 0.187311234284 0.104336547443
0 0 0 0 0 0 0 1 0 0
0.139716527473 0.164355915083 0.20623487422 0.334151694963 0.690062849115 0.411309777269 0.335911651221 0.202674962698
0 0 0 0 0 0 0 1 0 0
0.0819982620023 0.25161371453 0.158536322276 0.440466854542 0.802935362302 0.159234720172 0.152822157677 0.13193371153
0 0 0 0 0 0 0 1 0 0
0.125193463004 0.0895992431301 0.145012151351 0.295222647187 0.81646498061 0.370779140286 0.218655364883 0.127323340258
0 0 0 0 0 0 0 1 0 0
0.0684233431245 0.159801851982 0.175645706341 0.300812155772 0.827086043681 0.358918570477 0.172734858679 0.0755715006723
0 0 0 0 0 0 0 1 0 0
0.100621341522 0.0981532708812 0.145464286555 0.313634823009 0.863065318038 0.27167762211 0.172840885513 0.110227831864
0 0 0 0 0 0 0 1 0 0
0.113040794012 0.137920201994 0.160592565721 0.302886728151 0.785547243015 0.395101049996 0.257782769163 0.105015178533
0 0 0 0 0 0 0 1 0 0
0.0820309747049 0.175321794905 0.176663093115 0.297662310536 0.814873959569 0.359997379955 0.202924300163 0.0890198443226
0 0 0 0 0 0 0 1 0 0
0.0742462825238 0.202614279162 0.192132085107 0.334745912242 0.828279956987 0.288991290712 0.171727576797 0.073561984989
0 0 0 0 0 0 0 1 0 0
0.0560441091523 0.166854891409 0.173894379416 0.305280035887 0.832045738836 0.358823631925 0.144458991341 0.0605015455737
0 0 0 0 0 0 0 1 0 0
0.124338735239 0.0925821413128 0.164759433299 0.269966412063 0.752786876289 0.453079600649 0.277322059654 0.164511887466
0 0 0 0 0 0 0 1 0 0
0.123692738984 0.114659379764 0.183238477663 0.301585633288 0.756163215615 0.403997537256 0.296815207633 0.154683589342
0 0 0 0 0 0 0 1 0 0
0.117248731273 0.111727813048 0.165485984737 0.288220243733 0.78927896313 0.372591199167 0.287052357185 0.13830607963
0 0 0 0 0 0 0 1 0 0
0.10753109841 0.147961987817 0.257803422765 0.389542830112 0.625649179308 0.420280351003 0.382913168744 0.183420631198
0 0 0 0 0 0 0 1 0 0
0.0790068119192 0.193335330586 0.0927446278877 0.363247397543 0.856975306587 0.187845952239 0.142177773214 0.161002604719
0 0 0 0 0 0 0 1 0 0
0.110237547674 0.0905056789339 0.134535468686 0.290727070997 0.84083852562 0.330810487001 0.208016295582 0.131600149369
0 0 0 0 0 0 0 1 0 0
0.141213832215 0.127544662139 0.145735963669 0.288114587318 0.81768358741 0.32559346467 0.246182095656 0.155945018011
0 0 0 0 0 0 0 1 0 0
0.138778561381 0.106431400696 0.142623252479 0.283804745796 0.801987775863 0.352750408283 0.271679181562 0.164619321744
0 0 0 0 0 0 0 1 0 0
0.132039387263 0.186346315713 0.287252417463 0.398435526082 0.70644346722 0.408359890557 0.185741785898 0.0790926508975
0 0 0 0 0 0 0 1 0 0
0.14886967534 0.182810617122 0.281496985801 0.410483766203 0.712647761109 0.383767876385 0.179898193075 0.0957739446319
0 0 0 0 0 0 0 1 0 0
0.111558309362 0.147675407464 0.218306096143 0.340516276933 0.823210221238 0.318639852818 0.139161546072 0.0597115659965
0 0 0 0 0 0 0 1 0 0
0.107622047451 0.144943210403 0.212921042922 0.340841233081 0.823655216656 0.321952154689 0.143686477365 0.0565149038985
0 0 0 0 0 0 0 1 0 0
0.0681831118928 0.203117021122 0.125648559692 0.353732305234 0.87741614109 0.113226935179 0.118017780419 0.128735444512
0 0 0 0 0 0 0 1 0 0
0.0968072016586 0.201774233642 0.209891342343 0.366936034883 0.773218686151 0.382871200911 0.14973929471 0.0658767453476
0 0 0 0 0 0 0 1 0 0
0.0607751193805 0.196650921996 0.11493647577 0.392484699529 0.86453884107 0.12435917285 0.115549334116 0.118894519259
0 0 0 0 0 0 0 1 0 0
0.101878874889 0.15767450498 0.169663230575 0.335633731326 0.79540388717 0.396943163484 0.164604696569 0.0774461556383
0 0 0 0 0 0 0 1 0 0
0.106187258852 0.206021851504 0.194831385661 0.336691308554 0.777908409414 0.395429037564 0.166146654439 0.0764763277048
0 0 0 0 0 0 0 1 0 0
0.112865751888 0.157096221738 0.165942315708 0.317939024451 0.798229891175 0.395992794774 0.183322288566 0.0798229891175
0 0 0 0 0 0 0 1 0 0
0.0951499364247 0.208782796845 0.172637543788 0.323040872453 0.808950301382 0.366923163461 0.14387764514 0.0588483795711
0 0 0 0 0 0 0 1 0 0
0.0947533384877 0.183743638221 0.200845642837 0.346830150515 0.785906343436 0.386759776173 0.161589619111 0.0573310089112
0 0 0 0 0 0 0 1 0 0
0.102164924313 0.139690375697 0.163171472786 0.341406290874 0.803983903514 0.390583682889 0.155418280351 0.0613609801272
0 0 0 0 0 0 0 1 0 0
0.0932088600898 0.143684785221 0.163356165662 0.33629689754 0.818120156342 0.365929530204 0.154231993458 0.0622368993954
0 0 0 0 0 0 0 1 0 0
0.0910443503581 0.124024701763 0.148432695505 0.335884398306 0.804999281483 0.399353627707 0.17317851615 0.063089174135
0 0 0 0 0 0 0 1 0 0
0.0999896833907 0.119971978351 0.159662838203 0.322727750107 0.829519418759 0.354324020807 0.168070261718 0.0637791058312
0 0 0 0 0 0 0 1 0 0
0.0887804242241 0.162325584444 0.192668798268 0.347313093618 0.798090180668 0.38512540623 0.138348079814 0.0600922947903
0 0 0 0 0 0 0 1 0 0
0.0492127888403 0.162914634963 0.0993682588028 0.305259484413 0.910944191073 0.134996770959 0.110680432269 0.0876693443634
0 0 0 0 0 0 0 1 0 0
0.135728899046 0.169351369058 0.269768226734 0.3679323226 0.711140584336 0.425039834481 0.2221786335 0.0948975912415
0 0 0 0 0 0 0 1 0 0
0.122331297226 0.152609677127 0.210564821107 0.382271465448 0.753195457625 0.404523583767 0.181504218825 0.0859640292269
0 0 0 0 0 0 0 1 0 0
0.131490476882 0.122937824156 0.173046924484 0.321695177081 0.759821865815 0.454549880779 0.200226520264 0.100637962753
0 0 0 0 0 0 0 1 0 0
0.107008174913 0.151917714384 0.20162890273 0.34575906894 0.770846219282 0.417582052102 0.178790808084 0.0687160338901
0 0 0 0 0 0 0 1 0 0
0.110780036066 0.11945118739 0.174557569632 0.328976998106 0.791465414952 0.41127189688 0.184890016302 0.0708279089406
0 0 0 0 0 0 0 1 0 0
0.164304788246 0.148547230056 0.217409441649 0.377396322491 0.69922061592 0.45523080921 0.234400687669 0.10076986501
0 0 0 0 0 0 0 1 0 0
0.118109357712 0.167249747417 0.223642021259 0.326588348505 0.762056384003 0.418530068356 0.195344459385 0.0857040852443
0 0 0 0 0 0 0 1 0 0
0.127401045631 0.168874374525 0.231005918946 0.364055286797 0.743591160419 0.409817156635 0.202659709286 0.0860323152967
0 0 0 0 0 0 0 1 0 0
0.127942713604 0.180171819698 0.244515102993 0.360662433532 0.694971218415 0.469052440074 0.226290704834 0.0842679168506
0 0 0 0 0 0 0 1 0 0
0.120302146457 0.168491082245 0.232969920645 0.351667390128 0.748703374695 0.416972880302 0.191831838227 0.0892783916309
0 0 0 0 0 0 0 1 0 0
0.0663629468702 0.176582726964 0.100856273988 0.353911645931 0.880867624488 0.141367278552 0.127646973976 0.129548560049
0 0 0 0 0 0 0 1 0 0
0.107200454483 0.158371069203 0.214351325036 0.368854847778 0.741825161663 0.430983510807 0.19843488383 0.077450097087
0 0 0 0 0 0 0 1 0 0
0.109100582065 0.150892152482 0.218889495879 0.36447166059 0.732434146474 0.439548987681 0.21962699418 0.0817148118037
0 0 0 0 0 0 0 1 0 0
0.0921414272907 0.147719523414 0.210262063569 0.344510886026 0.771449632667 0.413330589552 0.188039988862 0.0738597617069
0 0 0 0 0 0 0 1 0 0
0.0974302552451 0.114463516652 0.144198724421 0.320176647981 0.795599307066 0.412983589415 0.209363115916 0.0820516535181
0 0 0 0 0 0 0 1 0 0
0.109284735883 0.103370415595 0.412291358926 0.346527093085 0.663556978697 0.455477056121 0.157417631809 0.121485346288
0 0 0 0 0 0 0 1 0 0
0.0789834894203 0.16657053751 0.187021619592 0.357012424277 0.799496267463 0.36808421699 0.159412658781 0.0590613146335
0 0 0 0 0 0 0 1 0 0
0.0844984080495 0.130075029164 0.172917772454 0.35472064784 0.790918049291 0.400585045568 0.172594023764 0.0663684814182
0 0 0 0 0 0 0 1 0 0
0.08928302363 0.0996082712606 0.130941289157 0.326549354133 0.830307110508 0.374352749738 0.156200631977 0.0661673308374
0 0 0 0 0 0 0 1 0 0
0.0915988515252 0.0875787037235 0.132794559644 0.305142186369 0.829447269026 0.384637367094 0.174595451303 0.0823481888417
0 0 0 0 0 0 0 1 0 0
0.154547259509 0.0968261997077 0.124281754522 0.307572462675 0.784444423267 0.431912757825 0.201145599876 0.119715585491
0 0 0 0 0 0 0 1 0 0
0.142670063572 0.128092904903 0.14696050389 0.318991653009 0.811151680281 0.376524906906 0.177096970217 0.0937176903103
0 0 0 0 0 0 0 1 0 0
0.10697370674 0.0765462365832 0.10474508785 0.335429884017 0.805259131732 0.4144776316 0.178062101143 0.0852787840722
0 0 0 0 0 0 0 1 0 0
0.105977712401 0.107629313114 0.130861829807 0.303949584503 0.826516050017 0.375684108793 0.185750026827 0.0943614540551
0 0 0 0 0 0 0 1 0 0
0.11494522573 0.11142339631 0.135833317463 0.321822343564 0.763083281429 0.456319794695 0.227279439993 0.100857908049
0 0 0 0 0 0 0 1 0 0
0.105577421205 0.107400454755 0.126819725172 0.341184691876 0.796269349421 0.414779763639 0.177428721748 0.0852070028496
0 0 0 0 0 0 0 1 0 0
0.125050262134 0.109482700495 0.401266645476 0.311155167776 0.691874200408 0.442793214181 0.159636129554 0.119599654911
0 0 0 0 0 0 0 1 0 0
0.0971778836871 0.0983912883152 0.111158415271 0.303192886835 0.828122280259 0.371829383402 0.209285919971 0.0935376698031
0 0 0 0 0 0 0 1 0 0
0.100969698855 0.0963542667971 0.123534033363 0.337154462826 0.77681710186 0.426443129929 0.23829304775 0.097493879651
0 0 0 0 0 0 0 1 0 0
0.110594114085 0.09508301814 0.107957227774 0.305568590107 0.829843633033 0.374954892633 0.188770037645 0.0939972414239
0 0 0 0 0 0 0 1 0 0
0.0638340304584 0.112657429606 0.135157837616 0.297446692073 0.827076461825 0.411036459028 0.140782939619 0.0605397718271
0 0 0 0 0 0 0 1 0 0
0.111657228048 0.0961355921986 0.113973154667 0.300232784862 0.806829413972 0.423321820901 0.190990033502 0.0922428644776
0 0 0 0 0 0 0 1 0 0
0.0754613868346 0.127413912921 0.133685227085 0.284333844944 0.856497021416 0.354449193474 0.12974423731 0.0574356422956
0 0 0 0 0 0 0 1 0 0
0.0994043234483 0.095248340642 0.10500217784 0.300418185711 0.827761514243 0.398974349403 0.172006798595 0.076249562099
0 0 0 0 0 0 0 1 0 0
0.0868201849326 0.0931650880375 0.110739100235 0.321307719106 0.845834924711 0.344176758355 0.169532159222 0.0751346079911
0 0 0 0 0 0 0 1 0 0
0.0917137368913 0.100328466513 0.12714457359 0.296700123777 0.820078081847 0.411342294892 0.174238428853 0.0723637288189
0 0 0 0 0 0 0 1 0 0
0.0883012649105 0.0859374594846 0.102484097466 0.299993173054 0.793713333015 0.447704747669 0.21494870673 0.0877234458064
0 0 0 0 0 0 0 1 0 0
0.114122578571 0.113318048585 0.404195865169 0.284522029691 0.679747385511 0.472701593511 0.16746291667 0.127518002845
0 0 0 0 0 0 0 1 0 0
0.166604461127 0.300299399069 0.114020766472 0.402336806554 0.692217837549 0.443607852615 0.142101174842 0.105077961258
0 0 0 0 0 0 0 1 0 0
0.193586236616 0.314501001704 0.132515791691 0.421928394399 0.654986416654 0.44706395204 0.152180946543 0.126479485166
0 0 0 0 0 0 0 1 0 0
0.171995450478 0.302806184258 0.139316795455 0.382724718526 0.697545114189 0.430877677838 0.179924830005 0.0907793813781
0 0 0 0 0 0 0 1 0 0
0.189406930052 0.306038915713 0.14805752983 0.396687471814 0.644730519085 0.46818191865 0.206960417373 0.116098445012
0 0 0 0 0 0 0 1 0 0
0.169422836253 0.290726844708 0.142813938601 0.384350743851 0.704643030393 0.437782781485 0.145170604255 0.0969660795245
0 0 0 0 0 0 0 1 0 0
0.173857797398 0.279202551908 0.161349730819 0.406620365088 0.669116641219 0.464053598134 0.160960206254 0.107119255305
0 0 0 0 0 0 0 1 0 0
0.135116917515 0.248145086112 0.155630783055 0.343364958048 0.741447018079 0.43353712685 0.174610146842 0.0992984160697
0 0 0 0 0 0 0 1 0 0
0.132575757092 0.241393661049 0.159975324941 0.356541212009 0.721319635872 0.45703519662 0.17514913625 0.107603999052
0 0 0 0 0 0 0 1 0 0
0.144247869243 0.249298875141 0.15290615353 0.349061076844 0.723371928554 0.464049916431 0.152863501883 0.0992077302957
0 0 0 0 0 0 0 1 0 0
0.140357347992 0.273120894178 0.211090625491 0.351021355405 0.68881755036 0.467829385436 0.182933832277 0.105502650938
0 0 0 0 0 0 0 1 0 0
0.11789160833 0.101131804959 0.373693479018 0.222353887036 0.73420830923 0.444349658615 0.17060620355 0.145502310038
0 0 0 0 0 0 0 1 0 0
0.140986124554 0.241473381371 0.199231184889 0.32287342348 0.721112289572 0.459925883177 0.187161985894 0.106343053365
0 0 0 0 0 0 0 1 0 0
0.143324252582 0.268357600548 0.185593532152 0.351940664673 0.644231140414 0.522109777262 0.224495829282 0.10537745047
0 0 0 0 0 0 0 1 0 0
0.133002709356 0.252906966823 0.188245726988 0.346416458703 0.673086308668 0.51954554333 0.174632834391 0.0971501492021
0 0 0 0 0 0 0 1 0 0
0.151805491539 0.258232341167 0.225683813539 0.359663859414 0.639086922122 0.493854235031 0.246716787773 0.129563121286
0 0 0 0 0 0 0 1 0 0
0.150171166933 0.263341545863 0.193290574827 0.371838648184 0.666255074597 0.466315920676 0.235783667299 0.124636768962
0 0 0 0 0 0 0 1 0 0
0.14653638226 0.253194408392 0.174384925495 0.365204280417 0.655908971533 0.512024831486 0.210095472433 0.118782561962
0 0 0 0 0 0 0 1 0 0
0.136543418432 0.243476803881 0.167294206456 0.364000053714 0.653950225947 0.519093141051 0.224778340841 0.118142543664
0 0 0 0 0 0 0 1 0 0
0.150779592921 0.241919939744 0.127366612654 0.34578843402 0.655861430869 0.537987717487 0.223487538915 0.115830398741
0 0 0 0 0 0 0 1 0 0
0.162111902489 0.257646334714 0.167244112008 0.382043559918 0.666010125098 0.483510638008 0.200485762649 0.125951013407
0 0 0 0 0 0 0 1 0 0
0.151557589673 0.287609878923 0.17817651583 0.379790234322 0.670044080658 0.457720053494 0.217567148983 0.111898078478
0 0 0 0 0 0 0 1 0 0
0.203689275782 0.09927362923 0.300763429395 0.244914582292 0.764288054497 0.411272217861 0.159402536994 0.139726147009
0 0 0 0 0 0 0 1 0 0
0.148418583006 0.256658619406 0.146530675394 0.352457828723 0.674031425236 0.49395408382 0.231486517917 0.120438824044
0 0 0 0 0 0 0 1 0 0
0.147629259116 0.246223422702 0.189372403664 0.354511078013 0.674439969331 0.479958833542 0.238538492325 0.11793748266
0 0 0 0 0 0 0 1 0 0
0.137805630707 0.234726922435 0.17079028385 0.361075698829 0.686256333944 0.482250411985 0.224101614 0.112397284449
0 0 0 0 0 0 0 1 0 0
0.148084426014 0.243219912593 0.176614918787 0.372723982103 0.66701449208 0.470397768751 0.256114476942 0.130468623536
0 0 0 0 0 0 0 1 0 0
0.136244604231 0.262234238251 0.187565236403 0.368995803126 0.639745329141 0.501623699113 0.260952366975 0.111064989874
0 0 0 0 0 0 0 1 0 0
0.130607568289 0.24619111849 0.142129054553 0.350022752702 0.67686427504 0.503074176233 0.236835671644 0.110882783805
0 0 0 0 0 0 0 1 0 0
0.137454113778 0.242932800942 0.158419134058 0.367868233545 0.647954871386 0.513366479805 0.256155343708 0.112517303085
0 0 0 0 0 0 0 1 0 0
0.181250064258 0.248257663772 0.248092890986 0.18449059571 0.784538156928 0.356458459708 0.194212190066 0.172187561045
0 0 0 0 0 0 0 1 0 0
0.20259934024 0.265299219929 0.217891993823 0.254197886217 0.716998895192 0.404122530784 0.252668620859 0.187703162862
0 0 0 0 0 0 0 1 0 0
0.185307492909 0.237314633182 0.213003603114 0.201104533544 0.771952138325 0.387078784661 0.22433849266 0.165715059393
0 0 0 0 0 0 0 1 0 0
0.192191304381 0.102714588334 0.207487504372 0.350319303239 0.737971020705 0.37328378291 0.264797805133 0.180769603595
0 0 0 0 0 0 0 1 0 0
0.125278194779 0.0979743742721 0.371607502033 0.262016479357 0.757806265942 0.393932758938 0.15070331204 0.125685247149
0 0 0 0 0 0 0 1 0 0
0.169763801985 0.245505397518 0.202690282471 0.258387348487 0.750520637175 0.376516442437 0.246200274541 0.193389620775
0 0 0 0 0 0 0 1 0 0
0.16321236721 0.271659122831 0.229364888138 0.250403558729 0.742914499382 0.371375914624 0.246336805393 0.183654580644
0 0 0 0 0 0 0 1 0 0
0.142260219563 0.206220211231 0.173944104324 0.226355764163 0.798823070539 0.394293043873 0.191879975003 0.159180852279
0 0 0 0 0 0 0 1 0 0
0.124570441699 0.17528053301 0.177964621019 0.267066756886 0.797605509932 0.376730924107 0.215733573716 0.161620442251
0 0 0 0 0 0 0 1 0 0
0.113683417474 0.0975563088239 0.397495132699 0.233970060538 0.753593120359 0.397939580575 0.159874250321 0.114000880243
0 0 0 0 0 0 0 1 0 0
0.100824020476 0.171243817694 0.200410936407 0.232147426099 0.800359060138 0.384787094663 0.227865141133 0.160918752832
0 0 0 0 0 0 0 1 0 0
0.0923684659113 0.16523911066 0.16969012842 0.250596238861 0.844944973247 0.321694354413 0.19832632233 0.125770793883
0 0 0 0 0 0 0 1 0 0
0.0997408831595 0.156471331183 0.151416589593 0.219294548087 0.83818447151 0.370304953088 0.1907713634 0.135936443473
0 0 0 0 0 0 0 1 0 0
0.0920932856195 0.174296702182 0.135471622174 0.338752495056 0.771997303375 0.401029294263 0.221004301588 0.149620989289
0 0 0 0 0 0 0 1 0 0
0.134365582979 0.187929360481 0.170856720937 0.31603931981 0.708710029331 0.456921177424 0.274074511159 0.177177507333
0 0 0 0 0 0 0 1 0 0
0.114145962877 0.223178599815 0.183666535742 0.407774831182 0.695618926708 0.387373177184 0.26485995368 0.181807144491
0 0 0 0 0 0 0 1 0 0
0.090567994855 0.220634127159 0.168278523092 0.302459044714 0.80600886733 0.34375722749 0.176815880926 0.155678205807
0 0 0 0 0 0 0 1 0 0
0.101173421624 0.171650898991 0.165234522683 0.240383122002 0.82114217439 0.368094676036 0.218156794471 0.133614620237
0 0 0 0 0 0 0 1 0 0
0.13058514318 0.171879831002 0.179210926759 0.301033119542 0.769192312681 0.379441479636 0.265580398652 0.15653034926
0 0 0 0 0 0 0 1 0 0
0.121990514943 0.190171670094 0.159617459487 0.326760307882 0.737940768034 0.416612319815 0.269838945158 0.16052276943
0 0 0 0 0 0 0 1 0 0
0.0905410821921 0.0996090346134 0.351435072086 0.262105357584 0.687087753699 0.507355399027 0.22022664602 0.108053997937
0 0 0 0 0 0 0 1 0 0
0.0790194300915 0.167302315728 0.158814405298 0.2495531838 0.820354388736 0.381482025098 0.208837065242 0.127060141407
0 0 0 0 0 0 0 1 0 0
0.115242043352 0.189025058912 0.199565489707 0.32005072171 0.762910975547 0.379185241141 0.243889352534 0.153079487229
0 0 0 0 0 0 0 1 0 0
0.0809946537011 0.165065610039 0.185852626425 0.263023875421 0.805551818959 0.373023668267 0.235688729137 0.13733493913
0 0 0 0 0 0 0 1 0 0
0.0949990948336 0.180673691535 0.193691060215 0.269810354374 0.784919634864 0.390244095103 0.247053039625 0.136359244965
0 0 0 0 0 0 0 1 0 0
0.0911944844744 0.158381247522 0.159470527079 0.242647914017 0.8371331248 0.337720233713 0.223302309093 0.132587107623
0 0 0 0 0 0 0 1 0 0
0.0743518467077 0.159406159128 0.181861143794 0.213362740987 0.823968699908 0.402614644122 0.178347504107 0.132791348167
0 0 0 0 0 0 0 1 0 0
0.10461634912 0.14518281196 0.140670310986 0.279590876696 0.800186142165 0.389318323858 0.238563954572 0.1457353631
0 0 0 0 0 0 0 1 0 0
0.0812798802177 0.13544159939 0.11947657473 0.224778594856 0.854651039719 0.358243216894 0.18609698137 0.129809079008
0 0 0 0 0 0 0 1 0 0
0.101112224327 0.125949821293 0.110737867442 0.247688423724 0.755226239927 0.504014143278 0.234668022546 0.144341675102
0 0 0 0 0 0 0 1 0 0
0.151070896504 0.136629606584 0.128189891695 0.29721862599 0.769795772442 0.41148298812 0.266648103172 0.143990913459
0 0 0 0 0 0 0 1 0 0
0.152100150277 0.0863494589851 0.213429116567 0.280581818226 0.693779437533 0.524567570987 0.263182510087 0.139158516125
0 0 0 0 0 0 0 1 0 0
0.134803687161 0.1351233797 0.109388130333 0.248880641395 0.800723245319 0.398177056978 0.263266805638 0.143701796156
0 0 0 0 0 0 0 1 0 0
0.12714842788 0.130716004419 0.124532205084 0.273181227577 0.794570646951 0.423209712998 0.223187588332 0.127861943188
0 0 0 0 0 0 0 1 0 0
0.134506164692 0.175496182035 0.170734467445 0.250309099915 0.793684551367 0.38928244015 0.246970990718 0.129744450103
0 0 0 0 0 0 0 1 0 0
0.125447818215 0.156319579266 0.15773801153 0.236627876593 0.833537548367 0.35515040787 0.208008919728 0.12152627019
0 0 0 0 0 0 0 1 0 0
0.120596659446 0.13895795384 0.143346947456 0.243689810674 0.825090533795 0.383654414426 0.205356582029 0.126797622904
0 0 0 0 0 0 0 1 0 0
0.112915206227 0.166728326815 0.18809406658 0.233595956376 0.814710497268 0.376146157248 0.225830412453 0.115181905534
0 0 0 0 0 0 0 1 0 0
0.107289648845 0.149091289884 0.172076658258 0.222843699802 0.825739212793 0.394403832928 0.194508606847 0.108433383066
0 0 0 0 0 0 0 1 0 0
0.108221888437 0.13705931803 0.1317017988 0.247657149778 0.789511985945 0.405727260612 0.28348264793 0.150057125552
0 0 0 0 0 0 0 1 0 0
0.129056809734 0.25926812128 0.254815042861 0.427660457048 0.534616803517 0.537667986878 0.253660541049 0.170453946147
0 0 0 0 0 0 0 1 0 0
0.0934583314827 0.128075559344 0.111667157012 0.294246436818 0.805198356793 0.399162006836 0.22353890757 0.134786227629
0 0 0 0 0 0 0 1 0 0
0.116006042683 0.0896729518801 0.322457474576 0.299003468368 0.652569100879 0.51942899378 0.256589636781 0.153715028712
0 0 0 0 0 0 0 1 0 0
0.125219618933 0.127185390031 0.116177071883 0.269212351851 0.765716986892 0.44205277563 0.287395734506 0.133574146099
0 0 0 0 0 0 0 1 0 0
0.0870399477896 0.135248095436 0.20527340288 0.255128128623 0.780706709838 0.432958563204 0.231755867288 0.12742684947
0 0 0 0 0 0 0 1 0 0
0.150058683385 0.134135100784 0.140782328412 0.310137814387 0.709665958513 0.475524806256 0.303242555878 0.147578374568
0 0 0 0 0 0 0 1 0 0
0.112522799995 0.158262445923 0.195115843596 0.318760083126 0.728999458108 0.425940230795 0.298752395336 0.143161275575
0 0 0 0 0 0 0 1 0 0
0.11913670619 0.178618686612 0.257217818535 0.336968586091 0.675491880286 0.441882592218 0.322227649994 0.137159803839
0 0 0 0 0 0 0 1 0 0
0.100154321922 0.190482916292 0.287815989709 0.299052341512 0.657983250429 0.485108816185 0.307321518165 0.136733268053
0 0 0 0 0 0 0 1 0 0
0.149081382854 0.119747310217 0.178759886873 0.303731073039 0.740584874935 0.406314219424 0.321067452563 0.150286892689
0 0 0 0 0 0 0 1 0 0
0.0854610333602 0.123874528711 0.161608492926 0.269573998588 0.783779205859 0.448610466511 0.22512466786 0.111003409561
0 0 0 0 0 0 0 1 0 0
0.0694138208639 0.153056609496 0.137546688425 0.246081515561 0.821541131721 0.415755897633 0.181826128268 0.106942290598
0 0 0 0 0 0 0 1 0 0
0.108098682817 0.114479507844 0.109921775682 0.260005214771 0.781141672258 0.434056962996 0.282793875583 0.130243899088
0 0 0 0 0 0 0 1 0 0
0.148045964641 0.0789601575982 0.249526570874 0.224442255779 0.687497326556 0.549187125094 0.253822779537 0.143264700162
0 0 0 0 0 0 0 1 0 0
0.183205227879 0.147189603328 0.169241086025 0.320905684619 0.723601342956 0.397681507014 0.326620738814 0.157217905973
0 0 0 0 0 0 0 1 0 0
0.234410335091 0.33039403934 0.390119115683 0.49050807379 0.52253088068 0.238815588949 0.240255768095 0.235172782874
0 0 0 0 0 0 0 1 0 0
0.184138574325 0.315305777954 0.393013395488 0.56226140017 0.532805737817 0.211641375086 0.196099851579 0.170143066245
0 0 0 0 0 0 0 1 0 0
0.17221618436 0.335269536408 0.407896248259 0.556003668913 0.534974217704 0.203234624892 0.186110643194 0.142399426754
0 0 0 0 0 0 0 1 0 0
0.097816476838 0.0530555148446 0.111620982655 0.122789005601 0.514736251222 0.813606764493 0.157507633964 0.0914474451844
0 0 0 0 0 0 0 1 0 0
0.157617331589 0.309685206339 0.374237508876 0.510231094852 0.634041390527 0.189191827395 0.159467150535 0.125022246019
0 0 0 0 0 0 0 1 0 0
0.142447469277 0.262552184572 0.299094999973 0.503903578142 0.713875815009 0.160569925285 0.141653060246 0.10923124169
0 0 0 0 0 0 0 1 0 0
0.166863461562 0.343099637932 0.533759111184 0.559934724043 0.409097147904 0.171816917057 0.188037055637 0.154188443091
0 0 0 0 0 0 0 1 0 0
0.165970156095 0.348436238557 0.487571795771 0.588293440887 0.425631659997 0.176492627232 0.175573634119 0.15521793668
0 0 0 0 0 0 0 1 0 0
0.161537717022 0.280689312272 0.363697352242 0.497098284053 0.67175443791 0.162532908782 0.153757126899 0.12010155102
0 0 0 0 0 0 0 1 0 0
0.141608993264 0.237932091657 0.384748962831 0.575357294347 0.621548907116 0.156689196257 0.148809450549 0.10605956579
0 0 0 0 0 0 0 1 0 0
0.150821486641 0.245115215833 0.385901328724 0.560720448244 0.626168537914 0.148494443452 0.157269335475 0.122363687651
0 0 0 0 0 0 0 1 0 0
0.139939569493 0.247819956105 0.309053819553 0.505653255964 0.719930570854 0.147851347274 0.134912294029 0.0971665208674
0 0 0 0 0 0 0 1 0 0
0.0934394207985 0.0563901880894 0.13095961833 0.149923801852 0.544969095027 0.78503556392 0.163675974672 0.0916497544727
0 0 0 0 0 0 0 1 0 0
0.152824843056 0.238710739188 0.366862906628 0.504436496613 0.683859941441 0.162818838242 0.154126144513 0.112640654078
0 0 0 0 0 0 0 1 0 0
0.138604932357 0.253826175446 0.306109464557 0.515336910068 0.706225131535 0.159254238607 0.143932264792 0.110695367747
0 0 0 0 0 0 0 1 0 0
0.13909124368 0.224820963928 0.297503038947 0.478999129618 0.740286589183 0.179028747503 0.146576911936 0.102959303049
0 0 0 0 0 0 0 1 0 0
0.136375043297 0.223524276074 0.297629557615 0.489343652884 0.744464857154 0.149028031416 0.133389506775 0.0957504213298
0 0 0 0 0 0 0 1 0 0
0.128105657324 0.211151488803 0.256252203782 0.471410827732 0.774930870603 0.15431559232 0.132521683813 0.096007687008
0 0 0 0 0 0 0 1 0 0
0.130220357925 0.246216479359 0.25726372902 0.490916669549 0.754209453122 0.137874008016 0.133397344755 0.0979811620206
0 0 0 0 0 0 0 1 0 0
0.124934442397 0.233837474044 0.262675586486 0.468780562623 0.77233317537 0.143330639791 0.127974882367 0.0868214524722
0 0 0 0 0 0 0 1 0 0
0.135658826982 0.242461796451 0.266417602688 0.512841786281 0.736520052843 0.142555195444 0.12882295298 0.0971843502992
0 0 0 0 0 0 0 1 0 0
0.14186212938 0.222800673946 0.326390294918 0.490024795152 0.710872790098 0.19087437229 0.16905318446 0.115012793124
0 0 0 0 0 0 0 1 0 0
0.132895312486 0.0631952094628 0.161139358102 0.145601762602 0.527401940092 0.765251856454 0.234681729861 0.111088752208
0 0 0 0 0 0 0 1 0 0
0.150423404868 0.212791742858 0.291820445193 0.559394538819 0.680962384693 0.17548597025 0.142405304449 0.138660323415
0 0 0 0 0 0 0 1 0 0
0.133672652647 0.211896986667 0.28277187163 0.515116335376 0.728905259423 0.172675669423 0.134145636992 0.113188792157
0 0 0 0 0 0 0 1 0 0
0.127721505614 0.212616662174 0.263851722453 0.460332749575 0.783272713059 0.128782063787 0.116484639264 0.115272572782
0 0 0 0 0 0 0 1 0 0
0.0751677466077 0.109418807136 0.240629082422 0.567142186377 0.743729989458 0.170178547743 0.119058327164 0.0809617134336
0 0 0 0 0 0 0 1 0 0
0.0806668665626 0.132228186471 0.205222237571 0.473975387171 0.795722115566 0.21632224394 0.151256768818 0.0799507371195
0 0 0 0 0 0 0 1 0 0
0.0683480543886 0.10868326437 0.165448295118 0.448944852444 0.843876669118 0.159985379714 0.109669053616 0.069580290946
0 0 0 0 0 0 0 1 0 0
0.0771209397235 0.109122154403 0.161248356574 0.45596761785 0.827658744868 0.198417469276 0.13680022362 0.071654893738
0 0 0 0 0 0 0 1 0 0
0.0729962839393 0.116838975093 0.159828171234 0.457158881016 0.824341419428 0.201424822882 0.143432082842 0.0761407392474
0 0 0 0 0 0 0 1 0 0
0.0861239637576 0.159959012875 0.174431494993 0.478048935622 0.791162355745 0.227700385312 0.155388755365 0.0781514034334
0 0 0 0 0 0 0 1 0 0
0.115370652998 0.0688825020154 0.18806320984 0.145083598555 0.526801753376 0.783117024505 0.161146131854 0.0936341531574
0 0 0 0 0 0 0 1 0 0
0.0824345445071 0.113948093236 0.148146652843 0.450799194819 0.815536725172 0.246973895343 0.146215329229 0.0870508789995
0 0 0 0 0 0 0 1 0 0
0.065987957787 0.116225535073 0.15116274273 0.427142137169 0.845693157701 0.198291153995 0.135044171516 0.0639015437466
0 0 0 0 0 0 0 1 0 0
0.0825331192073 0.110630601169 0.202529547697 0.483504367319 0.798579077571 0.177691994582 0.170706432768 0.0878110992444
0 0 0 0 0 0 0 1 0 0
0.139576982994 0.152031688621 0.334872385901 0.296056780768 0.795509205321 0.277421544528 0.203395643785 0.0803000757578
0 0 0 0 0 0 0 1 0 0
0.100564370606 0.110016366713 0.194313568052 0.289725992281 0.672836083447 0.51641163284 0.33868976611 0.14827058272
0 0 0 0 0 0 0 1 0 0
0.118481602583 0.0638305332579 0.182179100132 0.153150708392 0.477438553055 0.813327111557 0.16488445794 0.0927791035724
0 0 0 0 0 0 0 1 0 0
0.140917382367 0.138872233091 0.270685402553 0.281570874506 0.786392882874 0.335998234268 0.257688808767 0.102917189369
0 0 0 0 0 0 0 1 0 0
0.117274694039 0.064857219586 0.183411000322 0.117023892726 0.536639569792 0.786563078366 0.143658992184 0.0860499305489
0 0 0 0 0 0 0 1 0 0
0.131145937467 0.0640836410856 0.187683651803 0.107855689866 0.471506949307 0.822562752066 0.155485806459 0.0934446718618
0 0 0 0 0 0 0 1 0 0
0.0693082839732 0.142428970331 0.11073837551 0.338320927225 0.860977466615 0.280896616309 0.155206475197 0.0625472266196
0 0 0 0 0 0 0 1 0 0
0.0854233149427 0.14832540804 0.152258609785 0.321881576905 0.848522723189 0.281500705653 0.193688334836 0.0846366745936
0 0 0 0 0 0 0 1 0 0
0.0832552408874 0.164416784889 0.152008551872 0.315840333218 0.846438545575 0.291147025825 0.185815598652 0.086149468936
0 0 0 0 0 0 0 1 0 0
0.0619076544594 0.144344907485 0.127249172478 0.319324783442 0.864941175458 0.279835352507 0.161906666833 0.0672791981704
0 0 0 0 0 0 0 1 0 0
0.0768814469302 0.0837494557692 0.0866928881287 0.279173238411 0.874098780625 0.320003928322 0.166140404295 0.0869947786272
0 0 0 0 0 0 0 1 0 0
0.081799347515 0.143606008007 0.174253334334 0.303571885517 0.832305313299 0.33770574141 0.187516775481 0.0906985313728
0 0 0 0 0 0 0 1 0 0
0.105954126799 0.0846311591039 0.13980058397 0.29047287823 0.726122130878 0.532113157205 0.24812726633 0.0756815191419
0 0 0 0 0 0 0 1 0 0
0.0927252938651 0.129906697198 0.254511796754 0.275928846833 0.670564326971 0.532125919659 0.277192803887 0.154799629175
0 0 0 0 0 0 0 1 0 0
0.106857508451 0.093081973944 0.228237597748 0.190945044463 0.745283310478 0.528161762267 0.222888745955 0.0853425738633
0 0 0 0 0 0 0 1 0 0
0.0560977027829 0.206924263822 0.119236346288 0.333849233806 0.875897204383 0.198274562164 0.119612420273 0.0868730905666
0 0 0 0 0 0 0 1 0 0
0.0681431255167 0.224841014869 0.125644476839 0.334724040432 0.873139687354 0.185224998329 0.122671039931 0.0724356058643
0 0 0 0 0 0 0 1 0 0
0.0679731630414 0.244068651944 0.119121500949 0.288500102298 0.887194332066 0.172943551377 0.115143538417 0.0900367257171
0 0 0 0 0 0 0 1 0 0
0.0578947915873 0.103597539218 0.0558047269091 0.227166807584 0.929985890055 0.179583001743 0.122942248962 0.137688816414
0 0 0 0 0 0 0 1 0 0
0.0523099549234 0.175739423298 0.0826387161569 0.225428374165 0.914554214014 0.218864851399 0.127834517211 0.0898850214915
0 0 0 0 0 0 0 1 0 0
0.0577093696818 0.17935557943 0.0914174922954 0.358866291573 0.889663954111 0.121047840707 0.119186248137 0.0836608565855
0 0 0 0 0 0 0 1 0 0
0.0594606180096 0.184747707399 0.0960790562801 0.314272129527 0.901191985121 0.144443775072 0.104869058147 0.101617151627
0 0 0 0 0 0 0 1 0 0
0.0660152163282 0.192865727913 0.103675161011 0.318373296997 0.896682707342 0.150965921908 0.107243551082 0.0894591554021
0 0 0 0 0 0 0 1 0 0
0.0785216895791 0.156070063317 0.102922491357 0.348424435771 0.866771709153 0.129677359354 0.105502910097 0.241337058026
0 0 0 0 0 0 0 1 0 0
0.100607835245 0.131662421162 0.281972632413 0.260617905052 0.657033829874 0.510220079264 0.331111063155 0.153167533927
0 0 0 0 0 0 0 1 0 0
0.0594324484338 0.134373689962 0.105614665874 0.326114857294 0.891422196161 0.132738921203 0.121058928623 0.184384707917
0 0 0 0 0 0 0 1 0 0
0.103015744154 0.157509579829 0.116101290512 0.320464152102 0.85611528384 0.188554819009 0.112610347776 0.259295809559
0 0 0 0 0 0 0 1 0 0
0.0667434800657 0.173373502003 0.126082381589 0.323817356089 0.898981289882 0.114893695228 0.0964845220563 0.118555075225
0 0 0 0 0 0 0 1 0 0
0.0666436306244 0.142832768147 0.0955300336996 0.280742853418 0.910096614537 0.136460767469 0.118394271428 0.162173664324
0 0 0 0 0 0 0 1 0 0
0.0684410435286 0.0917874299505 0.085047550537 0.312744301444 0.882692592189 0.147767802948 0.108509742447 0.262855297125
0 0 0 0 0 0 0 1 0 0
0.0712170538274 0.14732132967 0.0809460353269 0.290596494136 0.909000563518 0.164574359946 0.114520114006 0.125476583826
0 0 0 0 0 0 0 1 0 0
0.0597818527475 0.145269266425 0.119097487572 0.30032910923 0.898486704285 0.161459743383 0.109518828429 0.159997514443
0 0 0 0 0 0 0 1 0 0
0.0913694733977 0.167956232112 0.123661551766 0.262613723423 0.905514786973 0.197788980009 0.118956745647 0.077174859479
0 0 0 0 0 0 0 1 0 0
0.0628549228547 0.17360677481 0.111356441523 0.291837623643 0.88473845989 0.25650272223 0.122462975808 0.0691919172144
0 0 0 0 0 0 0 1 0 0
0.0664344186566 0.15265734888 0.113734852038 0.277300972455 0.893777469519 0.250596299734 0.120803735994 0.078870418208
0 0 0 0 0 0 0 1 0 0
0.100715858504 0.155119056848 0.27972846737 0.280257754915 0.654161598986 0.509930743058 0.317837170588 0.141508805699
0 0 0 0 0 0 0 1 0 0
0.0685587285571 0.149359330795 0.109308494928 0.260912875222 0.876501211803 0.304585441884 0.153510554397 0.0915175366373
0 0 0 0 0 0 0 1 0 0
0.105007773025 0.224766877226 0.136459861978 0.345691617951 0.808630192424 0.325051812612 0.179970259796 0.0916431473669
0 0 0 0 0 0 0 1 0 0
0.0696127481137 0.152017867645 0.114308181466 0.244122941851 0.889681622584 0.279207410938 0.148524994058 0.0885009626066
0 0 0 0 0 0 0 1 0 0
0.130765790229 0.171306977828 0.160707583138 0.260793016234 0.860048059506 0.281872038441 0.136754148811 0.147912456968
0 0 0 0 0 0 0 1 0 0
0.131163363324 0.131679669822 0.127914934939 0.221258847267 0.875698846557 0.299006000793 0.136046762286 0.159302067478
0 0 0 0 0 0 0 1 0 0
0.151213640539 0.0674211438276 0.0799210321304 0.235212066218 0.87046174392 0.31400048903 0.150225181497 0.178911086614
0 0 0 0 0 0 0 1 0 0
0.0941986180147 0.17503205052 0.100473584964 0.283682856193 0.895862702614 0.200230736693 0.11964435013 0.11376465669
0 0 0 0 0 0 0 1 0 0
0.0978117021258 0.167876373045 0.112026929936 0.281297488786 0.894766579732 0.203387105594 0.133295097699 0.104071869758
0 0 0 0 0 0 0 1 0 0
0.106265868401 0.179131717022 0.126950531106 0.293849110184 0.884288365611 0.205374589706 0.122102959846 0.122889738427
0 0 0 0 0 0 0 1 0 0
0.0953107278822 0.200890625098 0.157450871864 0.340195407969 0.858642590458 0.192459403685 0.155467055061 0.107505366466
0 0 0 0 0 0 0 1 0 0
0.185543717774 0.0872474566125 0.088432768978 0.268938909199 0.403683525598 0.722278556392 0.325241246557 0.295608437421
1 0 0 0 0 0 0 0 0 0
0.146160884194 0.0865101597028 0.0990382354909 0.282118979393 0.468996109898 0.695640390063 0.361985462542 0.216441491171
1 0 0 0 0 0 0 0 0 0
0.129552978543 0.11637248635 0.126108829829 0.335870733227 0.51841061506 0.667038878788 0.264404647415 0.239500802869
1 0 0 0 0 0 0 0 0 0
0.180162185526 0.125700550646 0.356839858867 0.232494396292 0.514417243198 0.61185452835 0.300119743868 0.203198682744
1 0 0 0 0 0 0 0 0 0
0.168282937849 0.125500317249 0.289546664421 0.301284104164 0.411227104831 0.693620181717 0.311076879334 0.185298752861
1 0 0 0 0 0 0 0 0 0
0.192255961539 0.161474239302 0.170894188034 0.428867272229 0.596275337504 0.444740256708 0.331330007791 0.246402123546
1 0 0 0 0 0 0 0 0 0
0.219011103212 0.0863500821598 0.119264465598 0.32984627549 0.346905559589 0.728381256661 0.361405951073 0.200145541973
1 0 0 0 0 0 0 0 0 0
0.282366142501 0.158056889235 0.220637456905 0.460933730878 0.409820806499 0.502675952455 0.257202856653 0.383871167968
1 0 0 0 0 0 0 0 0 0
0.33026724841 0.159313481871 0.193889948754 0.417328312433 0.477596058493 0.501152137525 0.305195866049 0.285290290493
1 0 0 0 0 0 0 0 0 0
0.154398936781 0.105016280888 0.254414442388 0.413643673474 0.433589947604 0.6177662281 0.356475719701 0.180539353019
1 0 0 0 0 0 0 0 0 0
0.193995495819 0.120376389523 0.135607928757 0.285916063983 0.505415532472 0.601232540906 0.336392676559 0.343004817622
1 0 0 0 0 0 0 0 0 0
0.143593803262 0.178032527915 0.163543394152 0.286106327885 0.512580138828 0.643360790218 0.310705416923 0.256695548904
1 0 0 0 0 0 0 0 0 0
0.24640167754 0.111635270535 0.114388977258 0.363324064982 0.509986485029 0.564344655733 0.320476388378 0.316951643773
1 0 0 0 0 0 0 0 0 0
0.121398109334 0.133291843019 0.164940111387 0.330837189851 0.559962450261 0.632076755073 0.304247176039 0.158719825379
1 0 0 0 0 0 0 0 0 0
0.146778268642 0.131691549386 0.13563947592 0.358274332967 0.543051394499 0.617004518324 0.315763624037 0.197607822768
1 0 0 0 0 0 0 0 0 0
0.193165880092 0.1151420148 0.106758868108 0.331538301387 0.477536356118 0.676964345787 0.269725219757 0.262756097809
1 0 0 0 0 0 0 0 0 0
0.100058038849 0.0790277778104 0.0976757045911 0.295573746946 0.46870372796 0.74751898564 0.24295701962 0.222132132224
1 0 0 0 0 0 0 0 0 0
0.0928791683634 0.110431435691 0.0987551973823 0.295166206072 0.545485042278 0.70978639562 0.221241970028 0.178896651227
1 0 0 0 0 0 0 0 0 0
0.224241231184 0.186338322419 0.216194803625 0.438000931731 0.596812001974 0.505230951467 0.185703078138 0.174586303221
1 0 0 0 0 0 0 0 0 0
0.247393980689 0.221890511061 0.258751801172 0.508623851784 0.573879693101 0.374085305525 0.200207399231 0.233558090283
1 0 0 0 0 0 0 0 0 0
0.171263335022 0.208951863895 0.392399642991 0.437731829327 0.53581282013 0.463235914127 0.17202013279 0.223936459713
1 0 0 0 0 0 0 0 0 0
0.242133160935 0.171429337314 0.247071454602 0.430650562051 0.634061229783 0.392555153759 0.181776238332 0.276230902925
1 0 0 0 0 0 0 0 0 0
0.140356621337 0.244418610322 0.288793196734 0.404714473131 0.557191025558 0.498611358621 0.216399414791 0.259731426485
1 0 0 0 0 0 0 0 0 0
0.186127452575 0.255784542617 0.26849762369 0.41754525647 0.558514785653 0.494883166327 0.17050095709 0.259956022344
1 0 0 0 0 0 0 0 0 0
0.11833416582 0.126797119221 0.155644751685 0.374209722136 0.562896787535 0.622358234042 0.283619325292 0.145047662208
1 0 0 0 0 0 0 0 0 0
0.203714057339 0.32992095026 0.37006941884 0.376679967291 0.470683179222 0.489726410542 0.190978138303 0.270122778025
1 0 0 0 0 0 0 0 0 0
0.229969563674 0.338175123113 0.325009676717 0.393391398299 0.424765770558 0.469764087346 0.262850429799 0.319638698585
1 0 0 0 0 0 0 0 0 0
0.126283685959 0.252788437452 0.261631058788 0.360668417755 0.565761966375 0.537907709165 0.202606561369 0.266715566057
1 0 0 0 0 0 0 0 0 0
0.172338128711 0.271197965711 0.258840486086 0.32888329591 0.537729829157 0.558752927274 0.212538394379 0.27396686156
1 0 0 0 0 0 0 0 0 0
0.133165426416 0.251146129017 0.218199879773 0.352745735626 0.545729771005 0.586268382156 0.188658689808 0.264628323191
1 0 0 0 0 0 0 0 0 0
0.206400083947 0.237263647901 0.21102961854 0.299955262184 0.643968261914 0.508515795608 0.169633863386 0.254045710802
1 0 0 0 0 0 0 0 0 0
0.160900914582 0.307801222227 0.309233102482 0.393395841915 0.558698462467 0.431685380586 0.199296518457 0.301278212176
1 0 0 0 0 0 0 0 0 0
0.166876113572 0.253021283668 0.27028248141 0.397114760469 0.557772554358 0.493230684541 0.201237690443 0.287222041927
1 0 0 0 0 0 0 0 0 0
0.139740736983 0.274287348947 0.344251587168 0.373413783063 0.554832679846 0.489874827186 0.183421451007 0.256577260023
1 0 0 0 0 0 0 0 0 0
0.148493347574 0.287702017929 0.317154735729 0.350788632675 0.53045636005 0.50407803868 0.232362882187 0.286472259357
1 0 0 0 0 0 0 0 0 0
0.152720541502 0.1053940592 0.127720526569 0.324671863721 0.485131621854 0.703424435168 0.287054580465 0.176876278257
1 0 0 0 0 0 0 0 0 0
0.133293112719 0.21031632311 0.252609507763 0.380820177691 0.481561454439 0.646196297702 0.205838933032 0.193193331326
1 0 0 0 0 0 0 0 0 0
0.168337836793 0.176405459596 0.19470518937 0.547614494207 0.682107669482 0.223335411759 0.206314695356 0.212217833993
1 0 0 0 0 0 0 0 0 0
0.186352693474 0.260151416841 0.590826465776 0.387443297679 0.404582942011 0.380893115132 0.228601370904 0.193339554858
1 0 0 0 0 0 0 0 0 0
0.188180379362 0.260267032522 0.5475518123 0.326454614229 0.418008203185 0.461779313369 0.246935131037 0.203753927999
1 0 0 0 0 0 0 0 0 0
0.236398995252 0.26315221154 0.491501566494 0.382476291267 0.428288214734 0.440954560498 0.240187061275 0.226810453131
1 0 0 0 0 0 0 0 0 0
0.188692034321 0.242331455313 0.511588627884 0.334557337257 0.494097512343 0.443638294176 0.2133916096 0.2133916096
1 0 0 0 0 0 0 0 0 0
0.218602858037 0.308186211887 0.439396613314 0.40543770608 0.458749538942 0.392414039148 0.303439267865 0.208013521372
1 0 0 0 0 0 0 0 0 0
0.174955051784 0.240820483044 0.418267154761 0.352943380008 0.506123840209 0.523998504942 0.221970836598 0.178529984731
1 0 0 0 0 0 0 0 0 0
0.15768714407 0.21823287618 0.375728419832 0.334725930365 0.506783105791 0.58620147908 0.223310287259 0.154813137799
1 0 0 0 0 0 0 0 0 0
0.272785669878 0.253274684044 0.394146455983 0.365064043134 0.481639115732 0.474031058363 0.247507285715 0.23425454062
1 0 0 0 0 0 0 0 0 0
0.14468554587 0.100203620994 0.125334052926 0.329876682448 0.445243391064 0.725389387537 0.307927317849 0.158894313291
1 0 0 0 0 0 0 0 0 0
0.205371499906 0.286361341105 0.450313378845 0.437123252501 0.455983900451 0.428370925674 0.225834686571 0.198838072838
1 0 0 0 0 0 0 0 0 0
0.183673253832 0.247195023293 0.440976623802 0.393191712236 0.491288622037 0.474862558687 0.237890749647 0.180686696859
1 0 0 0 0 0 0 0 0 0
0.21677910508 0.229106349613 0.390663408045 0.355585882951 0.577476284545 0.451998966209 0.193327274017 0.215175561076
1 0 0 0 0 0 0 0 0 0
0.273435350137 0.235350315266 0.434388956487 0.289902272088 0.462002717913 0.536821655597 0.2420215298 0.192114089426
1 0 0 0 0 0 0 0 0 0
0.208391883006 0.267321913603 0.465254840797 0.354479878703 0.483023819489 0.449622638025 0.258662348038 0.201531707689
1 0 0 0 0 0 0 0 0 0
0.182675160566 0.278445707333 0.466107955194 0.346602567039 0.49824696221 0.485040416223 0.205117053395 0.161618569762
1 0 0 0 0 0 0 0 0 0
0.336979839803 0.466015279655 0.467652855682 0.216021257984 0.512894362879 0.300314790105 0.0906217920234 0.206029268665
1 0 0 0 0 0 0 0 0 0
0.342963690027 0.445478070839 0.445715992233 0.26358716482 0.521107334083 0.294249284523 0.0937112892191 0.221058715571
1 0 0 0 0 0 0 0 0 0
0.323877264919 0.444512584698 0.466046905633 0.222000252238 0.549812449393 0.285040022783 0.0917971177761 0.197636014284
1 0 0 0 0 0 0 0 0 0
0.294803698403 0.448974760586 0.475246463832 0.184349227547 0.582510160288 0.249625911322 0.0908326993056 0.20441830392
1 0 0 0 0 0 0 0 0 0
0.175807917637 0.142364526673 0.232160542779 0.344201016177 0.42366742223 0.709368072562 0.278694924702 0.12681897491
1 0 0 0 0 0 0 0 0 0
0.272527235445 0.448203185655 0.471428038737 0.182606927308 0.593328118395 0.250852732503 0.0922002348135 0.213978718382
1 0 0 0 0 0 0 0 0 0
0.292416728319 0.458572181099 0.464588639118 0.257611237533 0.546851051103 0.275491925853 0.0824310977243 0.200651686377
1 0 0 0 0 0 0 0 0 0
0.281480870526 0.458176299903 0.450234325245 0.266839543095 0.559612064665 0.267703975711 0.0799600169631 0.213784991299
1 0 0 0 0 0 0 0 0 0
0.294221817944 0.462266048107 0.474121844997 0.186611893505 0.565777332785 0.261680268708 0.0866490955987 0.209855857245
1 0 0 0 0 0 0 0 0 0
0.262055847342 0.45683051045 0.414867779387 0.270814511343 0.596715668295 0.295400728939 0.0688301441058 0.170610889113
1 0 0 0 0 0 0 0 0 0
0.287046359508 0.466020707069 0.461031488769 0.226732253841 0.556796762243 0.277067922908 0.0867846805349 0.205306333032
1 0 0 0 0 0 0 0 0 0
0.28540863139 0.459302937726 0.454004682722 0.262486707111 0.54505101213 0.287221192313 0.0781074329774 0.216531316341
1 0 0 0 0 0 0 0 0 0
0.251283259344 0.45839930407 0.432865552639 0.277300299445 0.586631898004 0.279179755387 0.075231936391 0.186334631889
1 0 0 0 0 0 0 0 0 0
0.250750066203 0.454844513121 0.429728556571 0.247883571162 0.598141965217 0.292245994416 0.0869503495762 0.182718583898
1 0 0 0 0 0 0 0 0 0
0.135104567908 0.0824061228347 0.121670747008 0.296896457872 0.554257811955 0.677957156079 0.275348248509 0.171348836376
1 0 0 0 0 0 0 0 0 0
0.229289162815 0.443573055559 0.435044880483 0.301886602548 0.588875886609 0.29195505689 0.0801540505604 0.17841697921
1 0 0 0 0 0 0 0 0 0
0.238972048763 0.456781006299 0.466324114517 0.254377727594 0.572165860206 0.292234685814 0.0813398810641 0.180793265054
1 0 0 0 0 0 0 0 0 0
0.215981988336 0.392008458079 0.433381382414 0.212993943801 0.629596306901 0.338300272969 0.112434752708 0.207400937363
1 0 0 0 0 0 0 0 0 0
0.173152559098 0.217044318351 0.433743711286 0.387006317347 0.559037868841 0.427793747851 0.219458796267 0.20324730169
1 0 0 0 0 0 0 0 0 0
0.248542116912 0.214889877623 0.394483833317 0.40434592915 0.517327483166 0.461096234995 0.223973386942 0.206238916366
1 0 0 0 0 0 0 0 0 0
0.130161781779 0.234335885159 0.435386692254 0.445141379561 0.590121350455 0.362487158866 0.195019282882 0.150862568583
1 0 0 0 0 0 0 0 0 0
0.202590506805 0.247333856441 0.395771072037 0.473910488824 0.453983553729 0.474833032116 0.213568771974 0.198439061994
1 0 0 0 0 0 0 0 0 0
0.221000241483 0.214175735827 0.291406391497 0.532311441143 0.472824500178 0.471459599046 0.23408054399 0.190744933076
1 0 0 0 0 0 0 0 0 0
0.115852503166 0.0649796764335 0.10791740021 0.313348398975 0.519705159752 0.675585848944 0.283768098509 0.25590707035
1 0 0 0 0 0 0 0 0 0
0.267795003576 0.176070603478 0.447303175979 0.306279006908 0.417622702822 0.591848757121 0.216566842278 0.17833436838
1 0 0 0 0 0 0 0 0 0
0.188211168234 0.173937496749 0.295172206477 0.316308220022 0.525197912331 0.609924962299 0.269552796119 0.163232243135
1 0 0 0 0 0 0 0 0 0
0.233046565869 0.183311578834 0.306959559542 0.318910665484 0.587626686011 0.52676797729 0.244262219138 0.183587373586
1 0 0 0 0 0 0 0 0 0
0.149857807917 0.153845744852 0.319655300507 0.336847739736 0.464550342461 0.656591661063 0.271622815651 0.132399506226
1 0 0 0 0 0 0 0 0 0
0.185325446606 0.273623903715 0.481394147892 0.270740370694 0.491837213428 0.495578013024 0.25873863866 0.176908647517
1 0 0 0 0 0 0 0 0 0
0.141587188463 0.213405634282 0.302173548652 0.36721220705 0.479394038443 0.632806437524 0.246043215586 0.132127019969
1 0 0 0 0 0 0 0 0 0
0.224425563209 0.206546016264 0.307490958388 0.364575136914 0.428922881386 0.64384993528 0.228336714103 0.169855695972
1 0 0 0 0 0 0 0 0 0
0.173158889664 0.160692097234 0.289488634614 0.350527345603 0.355789303447 0.713602436835 0.243021499192 0.206511607075
1 0 0 0 0 0 0 0 0 0
0.141918644447 0.18292935539 0.327636008695 0.372244150422 0.386004323173 0.681713133655 0.249301953363 0.156847982203
1 0 0 0 0 0 0 0 0 0
0.213861417606 0.275128276197 0.254658274378 0.4416080812 0.352857024363 0.382631572463 0.539234243722 0.238768972266
1 0 0 0 0 0 0 0 0 0
0.120528690311 0.169393775861 0.257397616236 0.365943467098 0.482815057058 0.677186050213 0.217480754952 0.132744961699
1 0 0 0 0 0 0 0 0 0
0.223055664487 0.25942985722 0.397921853218 0.345175054011 0.459530114692 0.51084220096 0.28272284375 0.231073177966
1 0 0 0 0 0 0 0 0 0
0.193819495094 0.188832125655 0.284452036279 0.342408708725 0.535798258178 0.562454887938 0.273875373503 0.224001679113
1 0 0 0 0 0 0 0 0 0
0.257063641107 0.22577388397 0.301356933679 0.355321605729 0.453742114544 0.56589760766 0.299243859171 0.224067169944
1 0 0 0 0 0 0 0 0 0
0.208043368693 0.217687763268 0.301042887811 0.350212078011 0.480928068771 0.575649801205 0.282442983987 0.23155158047
1 0 0 0 0 0 0 0 0 0
0.18314717017 0.180902340105 0.270231095124 0.402211621388 0.509499016932 0.559504541839 0.294537186178 0.198860980629
1 0 0 0 0 0 0 0 0 0
0.210050592005 0.161582457917 0.249142057099 0.323627145996 0.485539768315 0.638471918923 0.265716310037 0.221276181643
1 0 0 0 0 0 0 0 0 0
0.200466811006 0.173435618569 0.266126449409 0.345563276214 0.471737906717 0.614044055287 0.291849680921 0.23395061067
1 0 0 0 0 0 0 0 0 0
0.175135350815 0.263988830064 0.161301875004 0.354438479598 0.533652932255 0.514410212697 0.356921411154 0.266826466127
1 0 0 0 0 0 0 0 0 0
0.311771614533 0.356924744914 0.290346914914 0.515958984741 0.366062878443 0.330662209896 0.246806396332 0.347325865156
1 0 0 0 0 0 0 0 0 0
0.301799976351 0.313505410493 0.298565580074 0.485313460312 0.447424818218 0.312042231226 0.224867550636 0.371262486855
1 0 0 0 0 0 0 0 0 0
0.243643047791 0.287019960346 0.333776892061 0.480901614947 0.532165238875 0.338001916011 0.197918899709 0.281011037395
1 0 0 0 0 0 0 0 0 0
0.227163758939 0.271892655001 0.243227562981 0.486341600846 0.660999993213 0.335864058381 0.120393386484 0.120677199276
1 0 0 0 0 0 0 0 0 0
0.215606190914 0.254312940321 0.269081217988 0.528299145837 0.63978098194 0.311200132632 0.111002000367 0.137286335708
1 0 0 0 0 0 0 0 0 0
0.132049549495 0.0823996194128 0.0908059567812 0.294090458871 0.427716196623 0.725002815014 0.356349895006 0.213267027715
1 0 0 0 0 0 0 0 0 0
0.159148522773 0.273715000871 0.160512409417 0.39075352351 0.512736135234 0.527483159573 0.329975324936 0.266980810566
1 0 0 0 0 0 0 0 0 0
0.222049289487 0.254242120389 0.258761303275 0.538696755583 0.621159148934 0.334470310965 0.107089401218 0.140450110844
1 0 0 0 0 0 0 0 0 0
0.295554138937 0.362129093387 0.327001604858 0.38881855028 0.600921671495 0.322094908048 0.096015135313 0.222102374563
1 0 0 0 0 0 0 0 0 0
0.187972285492 0.29499536491 0.282466961229 0.543020773583 0.630996980984 0.257363923594 0.0901027999075 0.174565506645
1 0 0 0 0 0 0 0 0 0
0.21622588568 0.342442049627 0.294546581195 0.517313257718 0.592004869282 0.315603707845 0.0934700110813 0.15098677185
1 0 0 0 0 0 0 0 0 0
0.205684692915 0.321129757542 0.261219976621 0.531647228334 0.597806290993 0.327670672428 0.100113493432 0.170063787012
1 0 0 0 0 0 0 0 0 0
0.19045912642 0.29452587998 0.270842209842 0.590112222801 0.584102933363 0.2990858702 0.0959718871993 0.124710430217
1 0 0 0 0 0 0 0 0 0
0.179883056294 0.299283799079 0.276552923587 0.587911363728 0.587038498109 0.287972915434 0.093214774218 0.14042225644
1 0 0 0 0 0 0 0 0 0
0.194279773967 0.26551866309 0.181619045236 0.397743034266 0.495462461649 0.540131652451 0.338540753443 0.220760312227
1 0 0 0 0 0 0 0 0 0
0.194581251326 0.337530281174 0.361617634497 0.510406022727 0.568761189709 0.309908579357 0.103994362752 0.1630410327
1 0 0 0 0 0 0 0 0 0
0.214433673448 0.322944168531 0.31384935825 0.545100590365 0.574697925549 0.290093086566 0.103688677563 0.170018069789
1 0 0 0 0 0 0 0 0 0
0.189814178547 0.331731659477 0.318093400413 0.528889515983 0.583587255255 0.301814311344 0.119307635001 0.164672029874
1 0 0 0 0 0 0 0 0 0
0.171673358336 0.300370037704 0.288391017684 0.594867244165 0.579621218685 0.269761307978 0.106605499592 0.152226897265
1 0 0 0 0 0 0 0 0 0
0.198591648796 0.320876651573 0.315849863298 0.522819492553 0.597417030558 0.275400973643 0.104322612673 0.202143912511
1 0 0 0 0 0 0 0 0 0
0.20834949931 0.349728154617 0.353198739358 0.460939419488 0.591105416403 0.300491617255 0.129555784213 0.201446468123
1 0 0 0 0 0 0 0 0 0
0.195918085553 0.321525135875 0.307857196316 0.504038126861 0.627049582891 0.255189631141 0.0991254174264 0.20314632282
1 0 0 0 0 0 0 0 0 0
0.191636619741 0.324493458092 0.304989431736 0.504542391586 0.594949290222 0.32598494246 0.125781848399 0.185326493567
1 0 0 0 0 0 0 0 0 0
0.189838909484 0.326025115725 0.314251547562 0.484533691136 0.616413458016 0.30520407404 0.127770870608 0.186283133864
1 0 0 0 0 0 0 0 0 0
0.190433513148 0.318292089178 0.297839427799 0.5231720119 0.589868886531 0.306358098662 0.129154042106 0.203780739384
1 0 0 0 0 0 0 0 0 0
0.164726522775 0.197179352482 0.156076644039 0.352245791706 0.491401505081 0.572470441548 0.299841416886 0.355592095158
1 0 0 0 0 0 0 0 0 0
0.174703082808 0.314778363235 0.295682148687 0.540441058579 0.596056510091 0.290989935969 0.121924783171 0.189907306962
1 0 0 0 0 0 0 0 0 0
0.171892988285 0.320961533804 0.289007313934 0.560982606712 0.572912693602 0.311064548538 0.122906747258 0.17062709482
1 0 0 0 0 0 0 0 0 0
0.221475553604 0.376271228544 0.425536232173 0.371006266324 0.601362827629 0.263219182634 0.114064538644 0.216123806293
1 0 0 0 0 0 0 0 0 0
0.199042568153 0.347580424239 0.325150931821 0.499278660242 0.597986836864 0.270749440633 0.118867104829 0.198858468352
1 0 0 0 0 0 0 0 0 0
0.188511829298 0.3319824575 0.350771446911 0.522229158643 0.583146073788 0.273291415664 0.114828876051 0.174796521697
1 0 0 0 0 0 0 0 0 0
0.233528341325 0.381043981032 0.365561123417 0.470227526183 0.560639416128 0.272749676204 0.113350514786 0.209675599428
1 0 0 0 0 0 0 0 0 0
0.219129295825 0.352016872315 0.33698332139 0.464333915526 0.60320915898 0.270185423808 0.12351977495 0.216296421133
1 0 0 0 0 0 0 0 0 0
0.192452876793 0.341975691491 0.31771250679 0.518879096974 0.573302246559 0.310350921339 0.131757355931 0.182987981213
1 0 0 0 0 0 0 0 0 0
0.171856363008 0.32181012376 0.310337332103 0.566271426347 0.560585497344 0.309529862896 0.118058727054 0.161022817806
1 0 0 0 0 0 0 0 0 0
0.160920531067 0.301252137477 0.294018190976 0.608660085198 0.553292571591 0.281324006009 0.121725061322 0.162311674625
1 0 0 0 0 0 0 0 0 0
0.143428187248 0.197508634496 0.205411338892 0.435356446655 0.508191072992 0.530660702655 0.306141332239 0.274058711407
1 0 0 0 0 0 0 0 0 0
0.152874448875 0.298645438412 0.287439981426 0.608296236363 0.547433263152 0.307949969659 0.123693571309 0.158043632901
1 0 0 0 0 0 0 0 0 0
0.17789644544 0.334792585054 0.324859479505 0.509834240316 0.584058784929 0.315082800815 0.131867842168 0.181689796771
1 0 0 0 0 0 0 0 0 0
0.160944389219 0.317896021827 0.301053848485 0.585301821416 0.56326906448 0.279311473848 0.119891591699 0.173684912588
1 0 0 0 0 0 0 0 0 0
0.149589661048 0.31202817999 0.318724063681 0.597707152808 0.549424402302 0.281190921047 0.125701643557 0.157118005955
1 0 0 0 0 0 0 0 0 0
0.191112290798 0.350395799783 0.325232914162 0.526047399416 0.572743572734 0.266845247524 0.110772536704 0.21606577654
1 0 0 0 0 0 0 0 0 0
0.159624833857 0.308797602007 0.284680291385 0.596063209998 0.569988445375 0.279915922212 0.116671645107 0.16117602382
1 0 0 0 0 0 0 0 0 0
0.149436217455 0.314389358936 0.304880093548 0.569423050522 0.554386739186 0.338454322969 0.125268264988 0.155066251836
1 0 0 0 0 0 0 0 0 0
0.145328629962 0.311398023233 0.316305595899 0.575511404724 0.560681221632 0.318813114779 0.123835610988 0.138952367666
1 0 0 0 0 0 0 0 0 0
0.213382414324 0.351596023602 0.325381967788 0.473196475008 0.582640158031 0.297201857789 0.126908797708 0.239072189022
1 0 0 0 0 0 0 0 0 0
0.217697572803 0.214319630934 0.354683896265 0.233940442217 0.37775452052 0.695927896156 0.269372896292 0.163003662964
1 0 0 0 0 0 0 0 0 0
0.177831124231 0.333927759947 0.306625248756 0.559720679507 0.55511266074 0.302401231553 0.124646907634 0.185549555665
1 0 0 0 0 0 0 0 0 0
0.173055912942 0.323234574234 0.283528488946 0.550797407124 0.583316548659 0.290252906616 0.12417046385 0.204650002311
1 0 0 0 0 0 0 0 0 0
0.235305595399 0.38379481185 0.362891277985 0.364877854962 0.610472140079 0.290662897139 0.134345974389 0.239367700561
1 0 0 0 0 0 0 0 0 0
0.195197895278 0.353100083815 0.358924344867 0.506506351539 0.536206676907 0.312091836403 0.142507065755 0.21590637902
1 0 0 0 0 0 0 0 0 0
0.180990576423 0.327143103376 0.292159592321 0.564100024407 0.560099830835 0.290668611081 0.132115484056 0.202482525522
1 0 0 0 0 0 0 0 0 0
0.174991640425 0.329911247016 0.293918440891 0.571916109491 0.537519942421 0.320924450049 0.146890793057 0.183202926993
1 0 0 0 0 0 0 0 0 0
0.267078076627 0.27350795453 0.244335360338 0.295655311754 0.348880412178 0.377814862745 0.460212557362 0.480097550138
1 0 0 0 0 0 0 0 0 0
0.128491809182 0.089245081018 0.116486927626 0.431977853353 0.493387439774 0.637380057558 0.309884250275 0.17215791682
1 0 0 0 0 0 0 0 0 0
0.145511589216 0.112059884748 0.129218015469 0.45222980195 0.501509549486 0.594482676416 0.321681698828 0.19146611762
1 0 0 0 0 0 0 0 0 0
0.187565292684 0.105155607987 0.123933395128 0.406450517126 0.375980900257 0.712563877305 0.319293240964 0.148805105643
1 0 0 0 0 0 0 0 0 0
0.136983983211 0.103374530081 0.126435561774 0.460129417849 0.416335281952 0.665714514266 0.314051967882 0.1664468155
1 0 0 0 0 0 0 0 0 0
0.222472759093 0.263415338768 0.24131719146 0.377024218793 0.411459368585 0.398308937365 0.478160524876 0.352350213823
1 0 0 0 0 0 0 0 0 0
0.142377154457 0.0981837433796 0.127646017431 0.425272193648 0.385154873884 0.685712975431 0.35655072432 0.16511745336
1 0 0 0 0 0 0 0 0 0
0.143369465717 0.104315882748 0.117614860337 0.456576606205 0.405326887691 0.651909394111 0.355180011221 0.175611377237
1 0 0 0 0 0 0 0 0 0
0.160728328311 0.102499376675 0.120084383221 0.426214030246 0.481363895133 0.604458940953 0.367163988811 0.188919078104
1 0 0 0 0 0 0 0 0 0
0.16142018782 0.115996811705 0.116902492517 0.401007596501 0.418076196421 0.647352777395 0.383033315768 0.21318332962
1 0 0 0 0 0 0 0 0 0
0.139257657258 0.101772255436 0.10506901716 0.432669450674 0.498360480578 0.608130435751 0.347258901571 0.182298713096
1 0 0 0 0 0 0 0 0 0
0.124115913599 0.092542050434 0.10120130022 0.421181197074 0.399503619378 0.707525504623 0.316033163958 0.168295759446
1 0 0 0 0 0 0 0 0 0
0.1472753119 0.0955129860996 0.109585650718 0.425872271354 0.459381933144 0.632155241333 0.363241947136 0.182247973477
1 0 0 0 0 0 0 0 0 0
0.117786479739 0.0859458256629 0.100429732216 0.367364538941 0.399564298137 0.71874889999 0.370596485031 0.141786672002
1 0 0 0 0 0 0 0 0 0
0.15774399695 0.101334805714 0.116077235336 0.436220733327 0.396416173349 0.633070964642 0.413563946751 0.179236907504
1 0 0 0 0 0 0 0 0 0
0.18106762647 0.138010401487 0.128035267253 0.452227129848 0.423564402366 0.590679467661 0.384800273129 0.225576927956
1 0 0 0 0 0 0 0 0 0
0.35887073212 0.263361645043 0.184932291935 0.266797223715 0.402355342166 0.419238757353 0.465079192775 0.377521016338
1 0 0 0 0 0 0 0 0 0
0.144955671371 0.0963810436227 0.105481399673 0.386174199923 0.447335683767 0.659303067872 0.379083013391 0.17592051923
1 0 0 0 0 0 0 0 0 0
0.120379523074 0.131953317982 0.129180429618 0.447881750847 0.575615456101 0.555783276286 0.294408407959 0.154618666342
1 0 0 0 0 0 0 0 0 0
0.151712318396 0.0994940558317 0.113103753894 0.406786712072 0.353279109692 0.632421179941 0.372547576948 0.3539237796
1 0 0 0 0 0 0 0 0 0
0.14357403845 0.0933362248135 0.102768095953 0.388278695224 0.425023693203 0.665339909934 0.373999890305 0.214837064834
1 0 0 0 0 0 0 0 0 0
0.137658486837 0.0984934853687 0.109361260645 0.377706453954 0.434095853974 0.664096255269 0.40033056475 0.16431529412
1 0 0 0 0 0 0 0 0 0
0.143476391495 0.0968017486349 0.10516733185 0.425051299561 0.479361196944 0.604512977586 0.39543979072 0.163460840287
1 0 0 0 0 0 0 0 0 0
0.147718353951 0.105923789734 0.111820730012 0.394210457549 0.411385296107 0.643061337259 0.425390529266 0.187964971345
1 0 0 0 0 0 0 0 0 0
0.138450660188 0.0880528358855 0.106848484645 0.395600620849 0.376231545517 0.697605282279 0.380181817459 0.180055943714
1 0 0 0 0 0 0 0 0 0
0.154295455171 0.0916417498473 0.113712192837 0.38646333904 0.433964202908 0.629106448089 0.435084195537 0.179198820694
1 0 0 0 0 0 0 0 0 0
0.165867514682 0.102859400339 0.126083545048 0.423891128227 0.429141804423 0.63896690315 0.348968017902 0.228269781772
1 0 0 0 0 0 0 0 0 0
0.356996000451 0.21829760607 0.174619616361 0.266038664588 0.459865515324 0.434378992788 0.424498348182 0.37851179665
1 0 0 0 0 0 0 0 0 0
0.138109935038 0.108972817942 0.144714348247 0.530166032862 0.435243780275 0.567137797 0.349580656011 0.183693336007
1 0 0 0 0 0 0 0 0 0
0.137778646648 0.0837317481117 0.108844448442 0.43660613237 0.56312500849 0.53255302548 0.379897833527 0.162754864911
1 0 0 0 0 0 0 0 0 0
0.144243801298 0.100694274547 0.124597959899 0.414206047747 0.419360279901 0.645623601565 0.384177043023 0.204152412713
1 0 0 0 0 0 0 0 0 0
0.14339238668 0.103584736926 0.135968224648 0.4979845066 0.492469414805 0.514459075681 0.38987456615 0.207452299072
1 0 0 0 0 0 0 0 0 0
0.1507172853 0.0855460804457 0.109328600736 0.413673867848 0.381656206204 0.619623394299 0.462019827005 0.209357171149
1 0 0 0 0 0 0 0 0 0
0.164614836008 0.0941255604359 0.121538056492 0.430278286302 0.426711864621 0.615872073372 0.384963752006 0.233565655168
1 0 0 0 0 0 0 0 0 0
0.172207508409 0.090498841426 0.108079190312 0.453826051743 0.413604344442 0.599529852361 0.399220422626 0.233738729511
1 0 0 0 0 0 0 0 0 0
0.178535133268 0.0979293001092 0.110404781905 0.450991898919 0.45480564724 0.531403812672 0.432698834938 0.257848170386
1 0 0 0 0 0 0 0 0 0
0.265102640722 0.097558929755 0.128317494403 0.417882240657 0.391683180886 0.566536574275 0.395808447203 0.313158374666
1 0 0 0 0 0 0 0 0 0
0.214196373209 0.112698319129 0.11367225522 0.429157981918 0.369052211716 0.562795927009 0.417470748824 0.342199402343
1 0 0 0 0 0 0 0 0 0
0.28334533336 0.261183744589 0.19442980918 0.260376237306 0.478223757698 0.463150288412 0.41945517209 0.356020988845
1 0 0 0 0 0 0 0 0 0
0.16891290737 0.0955075147824 0.123610875454 0.442188815567 0.369881210506 0.637375437732 0.401058376251 0.218240160215
1 0 0 0 0 0 0 0 0 0
0.167439909496 0.093265049676 0.115706952254 0.40490146957 0.374590328425 0.644476065925 0.425448925827 0.221941672901
1 0 0 0 0 0 0 0 0 0
0.155930052228 0.106646460591 0.115036479344 0.427766659819 0.484943083912 0.581583670287 0.349957004423 0.268729193238
1 0 0 0 0 0 0 0 0 0
0.148335940448 0.0900465658621 0.120446612212 0.420850641655 0.475815011172 0.64606884218 0.323475493191 0.172696691876
1 0 0 0 0 0 0 0 0 0
0.145103927687 0.0884663683128 0.102574641226 0.389442857118 0.404232689109 0.678355750245 0.382695422247 0.197243197147
1 0 0 0 0 0 0 0 0 0
0.143159839661 0.0792599112289 0.086459903165 0.408119542906 0.414359535918 0.674159244942 0.362099594449 0.204659770781
1 0 0 0 0 0 0 0 0 0
0.206337963128 0.225107488968 0.263534288494 0.480144762386 0.450214977937 0.508172230026 0.263027004012 0.276850506151
1 0 0 0 0 0 0 0 0 0
0.298211759127 0.239455566276 0.16952606462 0.280103293134 0.378255031684 0.515994959188 0.437011224535 0.382396861672
1 0 0 0 0 0 0 0 0 0
0.160235883455 0.0735329054213 0.109866132059 0.387592926455 0.431319878068 0.680858095995 0.32717233017 0.223544653559
1 0 0 0 0 0 0 0 0 0
0.183210961089 0.101318082252 0.11684643635 0.424992748282 0.458588312851 0.554474423328 0.399190882347 0.291200921718
1 0 0 0 0 0 0 0 0 0
0.158476348956 0.0932327363527 0.129329054568 0.447375580304 0.426464166008 0.630109169843 0.330464688687 0.247398116823
1 0 0 0 0 0 0 0 0 0
0.224364350201 0.0743496444712 0.0912212945628 0.383872933608 0.439692358996 0.627911343577 0.332400102821 0.300601331801
1 0 0 0 0 0 0 0 0 0
0.245630943271 0.119724818265 0.129655442209 0.451539390766 0.504029831614 0.442267430655 0.384609012041 0.32720392567
1 0 0 0 0 0 0 0 0 0
0.189731170071 0.0848365594488 0.105423846801 0.431645027364 0.436990312769 0.556121376599 0.41232790684 0.298542128416
1 0 0 0 0 0 0 0 0 0
0.180969814716 0.0883378078614 0.101276173659 0.445537087755 0.526346105174 0.500525142396 0.329147564393 0.338795569923
1 0 0 0 0 0 0 0 0 0
0.130573134099 0.0822088029892 0.0926103021471 0.430685424523 0.507191882796 0.635019443514 0.267112610355 0.224239426008
1 0 0 0 0 0 0 0 0 0
0.380919409679 0.219250796241 0.224674368569 0.27014006 0.389689441529 0.381380990303 0.456157051337 0.42188469003
1 0 0 0 0 0 0 0 0 0
0.159352669428 0.091040924934 0.0990520295155 0.437940383789 0.535750381587 0.574563872776 0.296286666344 0.244493943701
1 0 0 0 0 0 0 0 0 0
0.20857204282 0.0980911114159 0.112958895401 0.41436393091 0.43581947284 0.608551694915 0.337123979962 0.297476556001
1 0 0 0 0 0 0 0 0 0
0.194588058876 0.0987294128103 0.121570730818 0.411705395897 0.447090716418 0.569347934936 0.344679233218 0.353915613178
1 0 0 0 0 0 0 0 0 0
0.174855772826 0.114516309779 0.144652180773 0.441067253454 0.395152375849 0.51894647063 0.420615493812 0.372127215988
1 0 0 0 0 0 0 0 0 0
0.199233367726 0.145280347878 0.117957244678 0.435783278087 0.485403881994 0.501867062569 0.357048839058 0.346997634076
1 0 0 0 0 0 0 0 0 0
0.167159445213 0.0868102569787 0.108678489653 0.454097164844 0.471492349926 0.588454261046 0.329845842833 0.262915797376
1 0 0 0 0 0 0 0 0 0
0.167526642632 0.0957295100757 0.120587449156 0.450285699672 0.499737131673 0.539668501898 0.363150689811 0.269470637478
1 0 0 0 0 0 0 0 0 0
0.192208265726 0.162907788394 0.474395503406 0.441871257174 0.37560489646 0.362996378097 0.427113559545 0.246869058402
1 0 0 0 0 0 0 0 0 0
0.209841744912 0.147760670067 0.411894435713 0.413745300056 0.355828669983 0.412202913104 0.477677239245 0.261897304565
1 0 0 0 0 0 0 0 0 0
0.1709875458 0.126742020593 0.467646655938 0.39956563812 0.451589812113 0.401563823129 0.392357899336 0.239211291119
1 0 0 0 0 0 0 0 0 0
0.376513828022 0.202841676048 0.222007818667 0.249159854043 0.487391644312 0.453934956759 0.381473487735 0.341459961917
1 0 0 0 0 0 0 0 0 0
0.183105063919 0.124705160219 0.436646109253 0.433085139515 0.395837396057 0.411220785325 0.413642244747 0.275334180129
1 0 0 0 0 0 0 0 0 0
0.191248319754 0.140768191534 0.421322470941 0.415037007505 0.368747188242 0.455892519838 0.41929279004 0.272435555802
1 0 0 0 0 0 0 0 0 0
0.183763342369 0.123231235095 0.363626047754 0.424880495211 0.488952069378 0.408049968964 0.406966458691 0.259031189362
1 0 0 0 0 0 0 0 0 0
0.204087357661 0.189894912761 0.479775599842 0.419315784568 0.281010409018 0.435991907325 0.412645335465 0.277391335569
1 0 0 0 0 0 0 0 0 0
0.19154644411 0.144958522921 0.378557780848 0.472558188203 0.424321137061 0.352089245093 0.461838843505 0.241597538202
1 0 0 0 0 0 0 0 0 0
0.202918982426 0.112051603253 0.359995576408 0.420823589602 0.388127681054 0.419052561223 0.443438259681 0.34160412785
1 0 0 0 0 0 0 0 0 0
0.170427974338 0.120337316775 0.362874551138 0.405182198163 0.513146523827 0.388751398139 0.441236828175 0.22690469183
1 0 0 0 0 0 0 0 0 0
0.173801093371 0.130095015223 0.313835952453 0.426901676357 0.544791148017 0.400224889528 0.411187952608 0.214656775117
1 0 0 0 0 0 0 0 0 0
0.136832846978 0.149172353008 0.204667827774 0.49836099225 0.600694906137 0.367794805403 0.232577077016 0.34434328347
1 0 0 0 0 0 0 0 0 0
0.167213157066 0.122853551549 0.156837520521 0.354876844133 0.561412159987 0.509308419948 0.203001584568 0.436603778364
1 0 0 0 0 0 0 0 0 0
0.355798125644 0.235738657394 0.177003096641 0.279541448464 0.400496882895 0.485812773683 0.398306743341 0.391537221085
1 0 0 0 0 0 0 0 0 0
0.145555106731 0.131937346046 0.184532888814 0.377301668821 0.585645252966 0.527341666797 0.231909649044 0.331881952043
1 0 0 0 0 0 0 0 0 0
0.138239159025 0.140031469326 0.286596198782 0.458253272453 0.567988916045 0.398066336215 0.184665777468 0.392400323005
1 0 0 0 0 0 0 0 0 0
0.352956468823 0.341338714607 0.323188557665 0.468183091596 0.470374340611 0.362134908097 0.144002270225 0.249264911624
1 0 0 0 0 0 0 0 0 0
0.128502446501 0.12121108557 0.137227151889 0.305863243175 0.559689850643 0.627243998076 0.256132422463 0.290034134828
1 0 0 0 0 0 0 0 0 0
0.144337558556 0.130802067131 0.195710901008 0.320606571881 0.574150936249 0.571997562613 0.261973284028 0.309039879209
1 0 0 0 0 0 0 0 0 0
0.156273740237 0.178366753034 0.256441213512 0.345874228592 0.596074478037 0.473439534121 0.236345309216 0.350804590205
1 0 0 0 0 0 0 0 0 0
0.169307845905 0.149142946449 0.200231653376 0.298608015893 0.586392699172 0.496391534511 0.2748353389 0.392474656488
1 0 0 0 0 0 0 0 0 0
0.196570618509 0.14825621087 0.177866040695 0.332610186305 0.597511181333 0.387757631596 0.255652236994 0.473688256612
1 0 0 0 0 0 0 0 0 0
0.149598181551 0.112157762343 0.150252162673 0.299250861529 0.582424687154 0.565639171701 0.250202277414 0.36214204605
1 0 0 0 0 0 0 0 0 0
0.327125792093 0.29896787885 0.310329843843 0.295015891027 0.525910779617 0.47275654339 0.216074934252 0.271106364694
1 0 0 0 0 0 0 0 0 0
0.184182244054 0.111226516232 0.163645108876 0.326638245207 0.588861602936 0.539116097727 0.253095742094 0.344632687458
1 0 0 0 0 0 0 0 0 0
0.142656951926 0.0958586852388 0.126185658666 0.330698325625 0.599470243971 0.565820734993 0.267287381186 0.306945731052
1 0 0 0 0 0 0 0 0 0
0.15130910486 0.0971434469432 0.133845114398 0.335636066686 0.600324672121 0.548137356874 0.264688605435 0.325880790764
1 0 0 0 0 0 0 0 0 0
0.144947370757 0.110375368348 0.124119156191 0.37037382909 0.586023778544 0.538203898163 0.261486190354 0.33580182668
1 0 0 0 0 0 0 0 0 0
0.143935900092 0.121077429917 0.136623824618 0.290243284121 0.543465068997 0.625083641177 0.29696248861 0.295710872088
1 0 0 0 0 0 0 0 0 0
0.142227928792 0.12166085804 0.132441983838 0.304608269653 0.57587798107 0.584917540392 0.332805060201 0.264801035938
1 0 0 0 0 0 0 0 0 0
0.126995030779 0.104455043999 0.128833819174 0.296222878893 0.607037433438 0.600394068914 0.250371800522 0.277419784658
1 0 0 0 0 0 0 0 0 0
0.137914638817 0.0957384962182 0.134343815242 0.383492977111 0.548155105723 0.584806577885 0.267677020039 0.304261118171
1 0 0 0 0 0 0 0 0 0
0.144172893499 0.0885294646163 0.122056553678 0.319500978746 0.58156357929 0.57906347131 0.270909136473 0.327834672012
1 0 0 0 0 0 0 0 0 0
0.136279921727 0.0846628772253 0.111318028248 0.322538251623 0.554787641276 0.595917413244 0.259013783098 0.357550447946
1 0 0 0 0 0 0 0 0 0
0.264229681805 0.222141387764 0.271767883723 0.277028920478 0.42975603225 0.633601575776 0.282918140726 0.253079424802
1 0 0 0 0 0 0 0 0 0
0.179813219939 0.100739097232 0.12822994726 0.34348390984 0.547692983446 0.557038658731 0.264895276758 0.377710928417
1 0 0 0 0 0 0 0 0 0
0.171678399244 0.251023089069 0.237387557188 0.375858734395 0.489821218521 0.452323505848 0.265892871681 0.441215249273
1 0 0 0 0 0 0 0 0 0
0.167400667567 0.182391772125 0.218028520681 0.317377463608 0.507790791682 0.547175316376 0.316654208564 0.364586292875
1 0 0 0 0 0 0 0 0 0
0.1029397633 0.0938741979023 0.09800466261 0.263276893317 0.598273673831 0.664575678749 0.22733648612 0.224493438983
1 0 0 0 0 0 0 0 0 0
0.171360843665 0.0930556759965 0.112358810352 0.310853305139 0.578001400417 0.536360047688 0.230605683699 0.421633871802
1 0 0 0 0 0 0 0 0 0
0.146338927857 0.113615067188 0.118853606214 0.361867390643 0.582838491378 0.560455642813 0.270226974175 0.306216417613
1 0 0 0 0 0 0 0 0 0
0.133149667419 0.133268977156 0.131240711613 0.299348132216 0.52347147473 0.645465681662 0.260274193077 0.31509701761
1 0 0 0 0 0 0 0 0 0
0.144870076371 0.0903157277122 0.118839684815 0.298619678833 0.504490883079 0.647475580622 0.30342435391 0.318993933906
1 0 0 0 0 0 0 0 0 0
0.209798010267 0.112503334308 0.138711111642 0.310894850813 0.611537436399 0.447025922199 0.298130441127 0.4058810697
1 0 0 0 0 0 0 0 0 0
0.321562275751 0.296015714121 0.299361097192 0.315479761077 0.468759130855 0.499577205202 0.27198978116 0.27665304241
1 0 0 0 0 0 0 0 0 0
0.166947001701 0.109134965776 0.132207342925 0.330551130576 0.585854849313 0.499267888478 0.296663576638 0.391116120592
1 0 0 0 0 0 0 0 0 0
0.120012375659 0.099172637291 0.118541335303 0.398284176215 0.529145474495 0.597364970975 0.270794012084 0.304811820302
1 0 0 0 0 0 0 0 0 0
0.175050856287 0.0887138249955 0.108975991321 0.289018114386 0.561695772058 0.558190001345 0.245285110235 0.422891019754
1 0 0 0 0 0 0 0 0 0
0.149077618248 0.0924623940307 0.110625873955 0.332563036202 0.587263003747 0.557104772929 0.27958050797 0.336127190754
1 0 0 0 0 0 0 0 0 0
0.174606778647 0.111817489534 0.136297014144 0.312909177575 0.543528427788 0.5161445528 0.30066941527 0.433923776638
1 0 0 0 0 0 0 0 0 0
0.196256406039 0.220382346818 0.300280724262 0.317969069871 0.504599165374 0.472531518404 0.26598699298 0.415916779568
1 0 0 0 0 0 0 0 0 0
0.160966229245 0.158687273689 0.299742628079 0.441997432762 0.428443644457 0.514983983056 0.29560452457 0.357136324572
1 0 0 0 0 0 0 0 0 0
0.126601462598 0.113093408159 0.167359531619 0.295715287002 0.560905879557 0.616867819375 0.260863337021 0.304194368792
1 0 0 0 0 0 0 0 0 0
0.144377799661 0.122899649402 0.146274571372 0.304152922624 0.605851199504 0.538794740774 0.288253512692 0.331209813209
1 0 0 0 0 0 0 0 0 0
0.216331197883 0.115998170897 0.142381571166 0.340320494823 0.510353898964 0.46957378749 0.319771884998 0.469510365855
1 0 0 0 0 0 0 0 0 0
0.302496763367 0.278219616903 0.316746392813 0.317977842271 0.55476798097 0.459858412004 0.223156233981 0.246201930987
1 0 0 0 0 0 0 0 0 0
0.160971538735 0.146897524419 0.151119728714 0.297357533713 0.55966197552 0.590624807015 0.273299765492 0.323262516312
1 0 0 0 0 0 0 0 0 0
0.14679187248 0.19288123269 0.221679472293 0.36828869209 0.474714321744 0.559526050638 0.285425258476 0.369567260868
1 0 0 0 0 0 0 0 0 0
0.137243169643 0.136482679231 0.14936031687 0.282598237011 0.562154512375 0.642563698579 0.251620927572 0.261051008678
1 0 0 0 0 0 0 0 0 0
0.151670716256 0.116717793992 0.140997591779 0.356332559304 0.631087494679 0.454887316904 0.280996528636 0.363822471218
1 0 0 0 0 0 0 0 0 0
0.146846974319 0.109358934739 0.136853927624 0.286185049144 0.522461322702 0.623633863256 0.282854033579 0.352071407864
1 0 0 0 0 0 0 0 0 0
0.141683352239 0.128943756702 0.140909451576 0.297594570523 0.554589121623 0.59614163417 0.325633586869 0.293070228183
1 0 0 0 0 0 0 0 0 0
0.145816753792 0.110295146721 0.146930283794 0.301432571604 0.590950372184 0.565561888133 0.26969696654 0.335116854171
1 0 0 0 0 0 0 0 0 0
0.177208424786 0.129308177985 0.159555047444 0.335582832344 0.560860166772 0.514534106485 0.287570143648 0.389611162362
1 0 0 0 0 0 0 0 0 0
0.16094738572 0.157626787025 0.157626787025 0.318235336143 0.611396763775 0.49849640815 0.30190341195 0.331178894321
1 0 0 0 0 0 0 0 0 0
0.352385986419 0.242894626353 0.245861141035 0.338452356854 0.49235154276 0.496217001284 0.254580896311 0.297280728849
1 0 0 0 0 0 0 0 0 0
0.190907093183 0.151835062073 0.167420780365 0.385908130803 0.387560073295 0.595776650848 0.346836099692 0.371615237069
1 0 0 0 0 0 0 0 0 0
0.148093817584 0.111986518537 0.137423302343 0.362474169239 0.584453221141 0.543549579385 0.25571512534 0.335905664119
1 0 0 0 0 0 0 0 0 0
0.17706155892 0.111603138052 0.130627714435 0.333479428572 0.557206133817 0.533035091483 0.312604437465 0.368232530111
1 0 0 0 0 0 0 0 0 0
0.143592135201 0.106013257009 0.136088365594 0.317079288517 0.597840332136 0.542792678298 0.329445500829 0.297509457382
1 0 0 0 0 0 0 0 0 0
0.171847838763 0.114003453934 0.124658998508 0.339074650542 0.533429608966 0.498309803891 0.341575441616 0.421220200802
1 0 0 0 0 0 0 0 0 0
0.157809226624 0.104034988269 0.124222659146 0.343607259479 0.552987350351 0.512433356641 0.292631901747 0.420427599987
1 0 0 0 0 0 0 0 0 0
0.166370697919 0.179641393911 0.150665011837 0.311678731557 0.603329669622 0.428497381139 0.304069387525 0.424418772738
1 0 0 0 0 0 0 0 0 0
0.116910134541 0.102825274505 0.124561169623 0.285116981561 0.53742725209 0.649932245221 0.27706020977 0.301578299463
1 0 0 0 0 0 0 0 0 0
0.135694063707 0.0912680151542 0.117104916503 0.305345197759 0.531099317596 0.587000976878 0.304942544751 0.382990119474
1 0 0 0 0 0 0 0 0 0
0.18671054387 0.133831820852 0.150580737645 0.448153159336 0.485319803268 0.569463170967 0.253945481283 0.315278419444
1 0 0 0 0 0 0 0 0 0
0.256489992444 0.225896408561 0.279476523037 0.308168343597 0.535305032586 0.555397575514 0.259135924023 0.218950838166
1 0 0 0 0 0 0 0 0 0
0.162718379158 0.0915404175362 0.117099227185 0.273291952816 0.511357461128 0.620601734993 0.297944421697 0.375950150436
1 0 0 0 0 0 0 0 0 0
0.134003550222 0.0827447743951 0.096123637268 0.248717896542 0.487656865201 0.687211470463 0.296484198125 0.325767251401
1 0 0 0 0 0 0 0 0 0
0.105419641532 0.1157442456 0.121919248032 0.306675320821 0.503929598533 0.708346879067 0.248482097894 0.221657887326
1 0 0 0 0 0 0 0 0 0
0.0870672220913 0.0934827016138 0.0892209902167 0.314129372335 0.461685401353 0.758034730439 0.253503090847 0.15814157023
1 0 0 0 0 0 0 0 0 0
0.362457246688 0.234541538178 0.114212554449 0.332992524865 0.545126759621 0.462437340695 0.333227772145 0.26006586806
1 0 0 0 0 0 0 0 0 0
0.168971164474 0.106285224348 0.138649553924 0.501040676219 0.44639794226 0.513296990378 0.40254331816 0.255148373404
1 0 0 0 0 0 0 0 0 0
0.248712590689 0.234158875873 0.122082277404 0.204011895184 0.577210725099 0.491057931146 0.354356966985 0.356241153278
1 0 0 0 0 0 0 0 0 0
0.241025461373 0.196375061155 0.1782764766 0.334011003576 0.538189047293 0.486602662574 0.29120297424 0.385705763052
1 0 0 0 0 0 0 0 0 0
0.252913963766 0.18945215736 0.209983918256 0.302065755002 0.573748651708 0.474719198901 0.291177699981 0.354224723339
1 0 0 0 0 0 0 0 0 0
0.183322380424 0.229812298244 0.276424880754 0.511266431321 0.485077519831 0.532732752213 0.190068938419 0.143333691218
1 0 0 0 0 0 0 0 0 0
0.149737341821 0.205045729341 0.228228287434 0.426329241829 0.509616578772 0.627777677673 0.193854149572 0.101473654067
1 0 0 0 0 0 0 0 0 0
0.131359257995 0.209853725126 0.241905154728 0.436449878595 0.493385602379 0.628815793293 0.198959679286 0.106188278397
1 0 0 0 0 0 0 0 0 0
0.313959724184 0.148507287497 0.119836095068 0.334768367388 0.454265559473 0.523333987569 0.463687062422 0.240214434911
1 0 0 0 0 0 0 0 0 0
0.136234623053 0.18901019775 0.217729929096 0.41029940979 0.468475275851 0.670679367275 0.2199391392 0.110951440757
1 0 0 0 0 0 0 0 0 0
0.12916731455 0.164394763972 0.217614727885 0.426643554119 0.42910568768 0.695205507244 0.218940492111 0.107386902272
1 0 0 0 0 0 0 0 0 0
0.139249938972 0.165628179444 0.198799099866 0.391541393443 0.503507401284 0.669814848723 0.210799501111 0.117230334801
1 0 0 0 0 0 0 0 0 0
0.125608989041 0.156218709581 0.193948178362 0.385661691217 0.512050214737 0.675128827733 0.214164105849 0.0980134684862
1 0 0 0 0 0 0 0 0 0
0.129848191407 0.162445242104 0.205842520441 0.371920566388 0.550173414402 0.650959175066 0.19298043116 0.111242344698
1 0 0 0 0 0 0 0 0 0
0.0975410773172 0.145985490793 0.190219924641 0.446079954199 0.357314609066 0.748309055163 0.18761092318 0.105664559136
1 0 0 0 0 0 0 0 0 0
0.120473549716 0.166530292827 0.223931061336 0.477810349719 0.343043328003 0.701817037891 0.231115610754 0.125162413546
1 0 0 0 0 0 0 0 0 0
0.131801514073 0.141989070716 0.171225235875 0.373066201871 0.411853201383 0.738014194542 0.256015420854 0.118907887696
1 0 0 0 0 0 0 0 0 0
0.304926517362 0.150692014389 0.166360713896 0.422441763665 0.484844062571 0.530010792019 0.343212643984 0.210709945979
1 0 0 0 0 0 0 0 0 0
0.155626494565 0.163955799908 0.207136672343 0.387038708138 0.507539645303 0.661412601901 0.200506106906 0.144666882272
1 0 0 0 0 0 0 0 0 0
0.130244733055 0.131919547454 0.171724302991 0.421606611245 0.406142491633 0.717769624044 0.249938135401 0.125611079886
1 0 0 0 0 0 0 0 0 0
0.169567842005 0.159448857083 0.203337708845 0.415117884399 0.465353555106 0.643603366423 0.274649608501 0.161065499644
1 0 0 0 0 0 0 0 0 0
0.154189232834 0.168964817274 0.202616387576 0.40487929227 0.399082173017 0.697209635126 0.280382621467 0.136797875073
1 0 0 0 0 0 0 0 0 0
0.156444877672 0.142951138693 0.17630247608 0.363034610672 0.41695064196 0.724242557989 0.268519513201 0.147429410145
1 0 0 0 0 0 0 0 0 0
0.306270696184 0.459575379345 0.412477651941 0.360186982397 0.52055858247 0.336863898788 0.093631004576 0.0434852459159
1 0 0 0 0 0 0 0 0 0
0.291952285069 0.449583457648 0.409836526868 0.38684299524 0.504885501269 0.357451066905 0.101944772971 0.0441783292051
1 0 0 0 0 0 0 0 0 0
0.284566404737 0.467652287092 0.420009298503 0.324699404161 0.546889847934 0.314486775583 0.122336288471 0.0743584596006
1 0 0 0 0 0 0 0 0 0
0.291640061834 0.460200963262 0.402797024364 0.386790751786 0.523854774057 0.30281970067 0.130628510615 0.0901177898119
1 0 0 0 0 0 0 0 0 0
0.256846461987 0.418465253995 0.328691938822 0.501979473489 0.49337321693 0.371522036399 0.113937895278 0.0668382002909
1 0 0 0 0 0 0 0 0 0
0.317990535033 0.192568489348 0.137983675454 0.368496056786 0.51185403776 0.505443721537 0.33903450243 0.273053570807
1 0 0 0 0 0 0 0 0 0
0.277332802501 0.436509221562 0.346893027359 0.399925888086 0.547815959585 0.36227878392 0.127133570236 0.0689894210731
1 0 0 0 0 0 0 0 0 0
0.212732732445 0.141708136803 0.29637634388 0.613727538333 0.531362881202 0.366377776079 0.178115702637 0.147847117459
1 0 0 0 0 0 0 0 0 0
0.171607752957 0.144317934682 0.246445475466 0.573588450371 0.52160385789 0.476985842121 0.187847706163 0.158465110413
1 0 0 0 0 0 0 0 0 0
0.15503160525 0.130791857026 0.23486003403 0.547492829147 0.474687931654 0.57001952096 0.17130564116 0.156059439097
1 0 0 0 0 0 0 0 0 0
0.17865679699 0.137100152157 0.200575168954 0.506917515377 0.509050511307 0.581278166574 0.1831434436 0.146735409631
1 0 0 0 0 0 0 0 0 0
0.147515779152 0.131782619129 0.228478899092 0.515922340393 0.679171279567 0.377038914528 0.145845001096 0.133383781432
1 0 0 0 0 0 0 0 0 0
0.464474798317 0.186292658134 0.19221380409 0.344487802913 0.388281939038 0.495253585313 0.379344360237 0.232377048827
1 0 0 0 0 0 0 0 0 0
0.379177775432 0.355393733281 0.313703314569 0.414580458862 0.298257356161 0.342544882924 0.259984184885 0.430983246552
1 0 0 0 0 0 0 0 0 0
0.0802201140396 0.129248816318 0.179517544141 0.414931624343 0.44812615429 0.730327352134 0.177419039374 0.0824140053867
1 0 0 0 0 0 0 0 0 0
0.12631504455 0.127238638424 0.168528717503 0.383454444917 0.512648929193 0.692315102236 0.186185659214 0.125065476367
1 0 0 0 0 0 0 0 0 0
0.173407860571 0.101038144934 0.143823968826 0.354380331898 0.499119763172 0.699461492612 0.203473574657 0.183526129735
1 0 0 0 0 0 0 0 0 0
0.180899350144 0.119489205441 0.151779229034 0.354276897788 0.502402679893 0.69845308936 0.2044855737 0.149630142605
1 0 0 0 0 0 0 0 0 0
0.165391874884 0.1297903491 0.166250538771 0.42622754338 0.517444068625 0.62299367568 0.242473471525 0.178403935328
1 0 0 0 0 0 0 0 0 0
0.194982169317 0.127894776901 0.166239056095 0.380182018587 0.514719111569 0.647988126026 0.219860662274 0.200718715023
1 0 0 0 0 0 0 0 0 0
0.312899903874 0.346619282569 0.284756170475 0.39972066634 0.338388568084 0.503401118154 0.304934696308 0.283163128962
1 0 0 0 0 0 0 0 0 0
0.170317649121 0.144899873598 0.206929140871 0.390481349509 0.478608673401 0.661975350831 0.239706320985 0.173100617244
1 0 0 0 0 0 0 0 0 0
0.164053205915 0.124887100202 0.171330879459 0.373050212571 0.49927062701 0.690767884304 0.197163842802 0.153831130098
1 0 0 0 0 0 0 0 0 0
0.140235653293 0.155635226076 0.163071521679 0.375972079245 0.513338610613 0.678635165621 0.2198684251 0.125538722614
1 0 0 0 0 0 0 0 0 0
0.170242674487 0.137983130407 0.161701686072 0.393981945331 0.416200057086 0.729735125049 0.213640129136 0.138675642981
1 0 0 0 0 0 0 0 0 0
0.191178794636 0.147007969972 0.166169398136 0.391876090925 0.504045100599 0.660447147366 0.218241201296 0.150927353006
1 0 0 0 0 0 0 0 0 0
0.154213011595 0.107575644828 0.150432834406 0.361394048141 0.554319717697 0.655109261305 0.213283973213 0.171702024132
1 0 0 0 0 0 0 0 0 0
0.121341284572 0.13249135029 0.133324629222 0.33263701392 0.558931764055 0.696383107991 0.175345695397 0.105826424445
1 0 0 0 0 0 0 0 0 0
0.174037205825 0.127312931355 0.155604693878 0.37471275948 0.492962528815 0.67857363749 0.231294344265 0.178630024416
1 0 0 0 0 0 0 0 0 0
0.139788724991 0.117516687201 0.160491459305 0.365889141146 0.491010914421 0.709325171024 0.206303049231 0.14220303803
1 0 0 0 0 0 0 0 0 0
0.138280942164 0.112716868309 0.143539198055 0.366847256759 0.516987244124 0.691180955248 0.206582329858 0.159090210159
1 0 0 0 0 0 0 0 0 0
0.328874318348 0.399565344508 0.389563496682 0.327518135591 0.35226847089 0.408211009578 0.324975292924 0.277169850772
1 0 0 0 0 0 0 0 0 0
0.132877753057 0.0937706419944 0.137144965451 0.334246965819 0.469879501561 0.751893627052 0.194725325109 0.137739134266
1 0 0 0 0 0 0 0 0 0
0.125252880768 0.0907773353683 0.138398232611 0.363952628195 0.500366656754 0.715355165763 0.210375234588 0.13452903471
1 0 0 0 0 0 0 0 0 0
0.161273015817 0.122355585595 0.150117365007 0.373586954517 0.564404616315 0.635209888578 0.204774960071 0.1814958166
1 0 0 0 0 0 0 0 0 0
0.133888719994 0.0968815242858 0.150956217716 0.374104084372 0.438452417207 0.739757271813 0.223534508999 0.143168136231
1 0 0 0 0 0 0 0 0 0
0.300988621368 0.128153008785 0.163757616561 0.378151587559 0.440400703141 0.650314624154 0.20873496049 0.250470162983
1 0 0 0 0 0 0 0 0 0
0.154241495116 0.107684000697 0.162792871642 0.390702891942 0.456516819427 0.698045698638 0.251157095744 0.163426306941
1 0 0 0 0 0 0 0 0 0
0.1700666111 0.0931739828782 0.145771380943 0.374876922946 0.507562355287 0.667636982376 0.232808155368 0.20749851059
1 0 0 0 0 0 0 0 0 0
0.185659456278 0.111245847709 0.168491887187 0.38761249631 0.479568239114 0.675715519418 0.22598763676 0.192027063722
1 0 0 0 0 0 0 0 0 0
0.226660317343 0.1064436299 0.15105019898 0.37056893093 0.482680485745 0.682871593736 0.219575411199 0.172191558912
