5010 24 10
0.133296659533 0.103513113651 0.147412084122 0.337405699086 0.699983905356 0.479642127526 0.286166707829 0.18444154796 0.149880072081 0.104842686245 0.153283844556 0.337138767622 0.685002709725 0.452816976514 0.340548248501 0.197839463683 0.132505523388 0.0940379867631 0.147477582103 0.322235713139 0.716135437657 0.476694648463 0.275441020263 0.179047878196
0 0 0 0 0 0 0 1 0 0
0.12419572603 0.106793147718 0.211461562038 0.355235188668 0.63615529728 0.500172359778 0.344915055018 0.168612771836 0.120468004881 0.109974014962 0.213097085558 0.342276648389 0.604416945009 0.497785283275 0.416336068854 0.156152969997 0.116895571765 0.102929374213 0.214839163626 0.333206442229 0.642565226704 0.516298786905 0.336390134575 0.161076811761
0 0 0 0 0 0 0 1 0 0
0.144704044072 0.134482517946 0.270674559426 0.241968810097 0.694066554486 0.480945954012 0.304651339649 0.15268182056 0.238956255029 0.149110473527 0.289274725824 0.248576717955 0.638810491012 0.475234628979 0.339598268531 0.161065027738 0.139369763065 0.131724287248 0.276796123059 0.245338620608 0.696549830236 0.487409761328 0.286833479578 0.146267776162
0 0 0 0 0 0 0 1 0 0
0.0946675144315 0.172876103585 0.107384731453 0.276679813638 0.900305508246 0.189059565678 0.119252603655 0.112044650325 0.0998625093196 0.228948894297 0.116031698244 0.312214851962 0.866016270842 0.216215533884 0.131145322547 0.112853799971 0.0939856449685 0.150902982277 0.104812388413 0.27602600568 0.905515809947 0.189020392984 0.112030217376 0.113932590902
0 0 0 0 0 0 0 1 0 0
0.0936245709785 0.175731748194 0.104948214192 0.258549344091 0.888217101403 0.243415273408 0.147917780454 0.11149267719 0.108737722634 0.213672768564 0.125351290782 0.308523367123 0.848907267352 0.266170992002 0.158838993435 0.122065843324 0.0935390064663 0.156919275164 0.101593500823 0.261849265559 0.892367595616 0.241634830693 0.141970237904 0.113479744922
0 0 0 0 0 0 0 1 0 0
0.0751292205239 0.172431031172 0.110559908388 0.26617209557 0.902964843378 0.195386480401 0.137631681296 0.0953320361269 0.0759024928284 0.203061894566 0.124607081155 0.291821343024 0.877294878848 0.224763165613 0.151222572536 0.0963587366356 0.0728660896675 0.15804586608 0.104514690944 0.264607783269 0.908816806196 0.195062749509 0.125639032861 0.0948093220814
0 0 0 0 0 0 0 1 0 0
0.0721837898306 0.17572013484 0.0846544132217 0.322099105371 0.868216868836 0.228896280953 0.192238682356 0.0992369970259 0.0824091560184 0.245284558277 0.0980840877149 0.377137007687 0.813302230593 0.262291480947 0.198073632002 0.10817071085 0.0700016308832 0.158743855861 0.0796934577312 0.313384379028 0.87915434062 0.233078483582 0.170318928684 0.0953565523055
0 0 0 0 0 0 0 1 0 0
0.0603042609941 0.143815803169 0.0738255900852 0.239851909789 0.928226240821 0.176102310133 0.11187599695 0.0870002184303 0.0715875176721 0.175216874911 0.0924518403156 0.305603627091 0.889953471805 0.200963622418 0.119041561524 0.125135532555 0.0597950701645 0.133634439015 0.073225264535 0.251515767336 0.927377616443 0.175313431882 0.10479823639 0.0905403362036
0 0 0 0 0 0 0 1 0 0
0.0539682799239 0.272990930655 0.105923701667 0.357459932186 0.850278656844 0.19141097263 0.135595599317 0.0746178367882 0.0543145873184 0.295891138 0.114296570055 0.407120617754 0.810939752463 0.217523847542 0.140202523325 0.078043595571 0.0489380616271 0.25647353587 0.101571707345 0.353923245575 0.860502541652 0.187948878564 0.123759425672 0.0717085451377
0 0 0 0 0 0 0 1 0 0
0.0660657100018 0.237570550371 0.0896393128765 0.27868676628 0.880042954787 0.215991989763 0.15506294031 0.0912215877776 0.0751241955851 0.264885043361 0.101036436048 0.322944350656 0.843475631397 0.242298459139 0.169803334263 0.10343112502 0.0637169139152 0.215254996533 0.0849374885366 0.272666447118 0.892409327657 0.210260296915 0.141686658509 0.085820529353
0 0 0 0 0 0 0 1 0 0
0.0485374961812 0.265761219312 0.103775981251 0.289147670532 0.874948119151 0.205541665835 0.139335895618 0.0737778876607 0.0508550714158 0.291572886316 0.115768062082 0.34636788537 0.838975880411 0.218595867471 0.147309740701 0.0752410564108 0.0456274394728 0.251662136181 0.104877459795 0.284118345374 0.883060552195 0.204160907977 0.127335569992 0.0719015135817
0 0 0 0 0 0 0 1 0 0
0.0731378315073 0.238753479762 0.129591520818 0.323399964458 0.776323351195 0.390204631785 0.218085573 0.117333783694 0.0732749495201 0.256187072128 0.133715907999 0.332208684737 0.740241973222 0.42425472459 0.242141705331 0.119052744036 0.0665002480814 0.237944922102 0.129912692516 0.307287585461 0.78937348599 0.385546026238 0.208068888139 0.112285627987
0 0 0 0 0 0 0 1 0 0
0.173474389796 0.250375407952 0.185129796717 0.393077056721 0.80471642817 0.207638915905 0.119514172564 0.116060718662 0.160687930932 0.315707448107 0.179019132749 0.379989722256 0.791895737597 0.207509223071 0.114907527519 0.121266155163 0.170175056979 0.193345578017 0.166632288384 0.362746926912 0.835604730606 0.219366602523 0.118214450923 0.118214450923
0 0 0 0 0 0 0 1 0 0
0.0630029865795 0.120135531945 0.0921947980802 0.342602798711 0.887398990707 0.183042281783 0.162640092647 0.0910399571856 0.0682010176257 0.12871899949 0.0971392256205 0.364501896893 0.868124984477 0.209619259064 0.169532356734 0.100796507622 0.0577570992021 0.115780535489 0.0875678285993 0.337544206569 0.893256533576 0.179492170939 0.15474184615 0.0870922266625
0 0 0 0 0 0 0 1 0 0
0.20676141704 0.223744212857 0.241386534726 0.375517645381 0.762412115145 0.291263192345 0.160841915727 0.126216798041 0.179930548604 0.210131686677 0.263299449205 0.328107338046 0.741252998058 0.398700917718 0.164648512801 0.104695200535 0.199759094563 0.194294716751 0.21058474872 0.339977091263 0.794087507781 0.307293925856 0.154394448572 0.116504659023
0 0 0 0 0 0 0 1 0 0
0.114672329712 0.273367801727 0.271776603812 0.393768443931 0.769397231636 0.228071701091 0.126235034558 0.152578200033 0.177579157429 0.267812770747 0.263834405903 0.39794429005 0.732648314167 0.271857169675 0.129550911765 0.203249598414 0.118492789555 0.25009828825 0.264885422934 0.39942660278 0.776715995105 0.227199975274 0.12258099738 0.154177624875
0 0 0 0 0 0 0 1 0 0
0.0854853606386 0.277626185351 0.264143324798 0.396597336974 0.756489095369 0.291270035283 0.134426132078 0.115630621994 0.0906575891685 0.297831404272 0.261237613139 0.407975718464 0.714545507367 0.351314511414 0.140854596314 0.120628327723 0.0741983698529 0.242773771683 0.250404358201 0.374916150902 0.785320585133 0.296454342233 0.129623074464 0.104284682408
0 0 0 0 0 0 0 1 0 0
0.0862141574591 0.262099681699 0.230725507105 0.359765845036 0.767197963595 0.326663065781 0.166680704421 0.134615087963 0.0970652308167 0.276245188166 0.223415805048 0.370834303281 0.724989481952 0.388386532334 0.182871371521 0.130147795156 0.0696361152551 0.219744711854 0.206022146565 0.358256035303 0.787906143556 0.336189730506 0.163516303794 0.124552614588
0 0 0 0 0 0 0 1 0 0
0.089905915517 0.315229820699 0.242805610977 0.351423288347 0.766362198602 0.290293229704 0.153123342016 0.122744684825 0.12452997158 0.338346923117 0.265376546242 0.359934346333 0.712126398597 0.348142011223 0.166919842591 0.117673698942 0.0679159784016 0.271801488174 0.218926995874 0.344372072793 0.795249790311 0.29512037745 0.150437790106 0.113315585841
0 0 0 0 0 0 0 1 0 0
0.0677490559862 0.290896928832 0.21636987227 0.355427208289 0.784979126075 0.295137047914 0.146392432533 0.113647571303 0.0720347456324 0.31812453049 0.224121881848 0.359769026119 0.731707772877 0.359067741088 0.191911380959 0.113081929252 0.064177197257 0.267214325477 0.203704449047 0.343307966075 0.801547644885 0.299741449221 0.144179431271 0.109593146118
0 0 0 0 0 0 0 1 0 0
0.0754540862641 0.300720325646 0.197386245638 0.37408512491 0.769063119825 0.31075575337 0.150223160397 0.119911373586 0.0769547617358 0.323836484977 0.202687752243 0.397492853353 0.722825443167 0.347720588544 0.176838155612 0.124366554991 0.0720431527888 0.281299456943 0.199779682437 0.366276636295 0.779790586995 0.3128534831 0.148543441946 0.116593688729
0 0 0 0 0 0 0 1 0 0
0.0676915917547 0.305078168245 0.214673130608 0.352058411171 0.786064725874 0.285540462517 0.147844511721 0.105006538561 0.0783965069052 0.361178755158 0.221753024673 0.349537796318 0.730195427335 0.348351400576 0.165393816287 0.100814903021 0.0595005930251 0.263360149798 0.203201739946 0.355051327566 0.801072356381 0.294404860068 0.146077775458 0.100094257239
0 0 0 0 0 0 0 1 0 0
0.0843216421765 0.272110718044 0.222720125442 0.383655764258 0.756551655345 0.325786761565 0.167070924663 0.125018010613 0.114075925175 0.285233827988 0.220244364925 0.430570452135 0.711616642274 0.332870086019 0.184466120121 0.143182970124 0.0865851137743 0.262012206256 0.209378191038 0.353366173758 0.770768436873 0.341493101719 0.167950000834 0.127424556604
0 0 0 0 0 0 0 1 0 0
0.0692195236191 0.258295427007 0.193894984146 0.364132662752 0.798434061999 0.289144845498 0.141980341432 0.130553278725 0.0769755177857 0.284387408028 0.202383662041 0.355590483235 0.761436360859 0.351682194611 0.146750541364 0.144199217589 0.0648316719809 0.251178444997 0.185948217656 0.347872403857 0.813761478361 0.282487182764 0.139627227975 0.124947105529
0 0 0 0 0 0 0 1 0 0
0.0573567756465 0.162786984268 0.0931190680316 0.308978208251 0.897913467354 0.161872932066 0.159473545037 0.0904911679522 0.0619844837304 0.186205169074 0.0961977003594 0.349622957151 0.868444261776 0.180579487584 0.184302747906 0.0960388412694 0.0543789665151 0.157824012012 0.0942950725235 0.30024759513 0.903329779645 0.16089715284 0.153153532449 0.0880098918471
0 0 0 0 0 0 0 1 0 0
0.0650928989091 0.258944601225 0.180898983815 0.354635553374 0.796125670427 0.327001257758 0.143467822722 0.0942913999375 0.0719389419426 0.266896493376 0.190617485968 0.368959101661 0.75479453438 0.3706761543 0.187259402267 0.0945701938603 0.0631722442859 0.252050525071 0.176902990554 0.324765039526 0.807848937649 0.335480681072 0.148552267429 0.0920751421769
0 0 0 0 0 0 0 1 0 0
0.0697120974015 0.247762415003 0.206428693534 0.384204823929 0.759532837028 0.358088492454 0.167768297335 0.101312173018 0.0675887738059 0.244936577577 0.195870438126 0.413583987641 0.746124058942 0.359570189757 0.172746171593 0.100934705439 0.0668250074121 0.2408739686 0.206849359646 0.37319423754 0.764603882976 0.364983584387 0.166999197298 0.0986544803045
0 0 0 0 0 0 0 1 0 0
0.0781455453694 0.25137540973 0.207374690085 0.36480171436 0.774506213234 0.340412553129 0.164342854926 0.108949390102 0.0974989795713 0.259747832321 0.211761312863 0.412905613513 0.73023358513 0.362665164299 0.173213408652 0.113671096177 0.0761961743131 0.233758115547 0.200004899999 0.313172713274 0.802332841824 0.345859826067 0.165366618012 0.103774039937
0 0 0 0 0 0 0 1 0 0
0.071406980014 0.200861687159 0.16486263846 0.324257441115 0.811279053975 0.358010243754 0.151592053184 0.113612761247 0.0890873923547 0.203734515167 0.16600930333 0.335324744161 0.777341638255 0.399833586803 0.182238277388 0.114961739586 0.0671368147129 0.188404600237 0.154989308771 0.299422627893 0.818665634091 0.375043864321 0.153800408913 0.108604200672
0 0 0 0 0 0 0 1 0 0
0.0749635593352 0.203476737691 0.163454821655 0.352045178769 0.792079499878 0.344040795562 0.174767289435 0.161328195858 0.096035047446 0.217081638059 0.16829988643 0.365806933492 0.737512564296 0.38993464167 0.199292894965 0.214060277641 0.0705146520646 0.185329786475 0.148553063734 0.310927145721 0.807055936026 0.367968593238 0.178336900419 0.1529465
0 0 0 0 0 0 0 1 0 0
0.0918260310727 0.335874456512 0.240621681423 0.339890172157 0.70050143704 0.395949562555 0.18868509242 0.149170450477 0.078787403616 0.329057328874 0.225256211725 0.343283814413 0.640815705923 0.492934169368 0.216376945513 0.128381596612 0.0813608369384 0.279746593899 0.226662770812 0.340973372372 0.72321125706 0.405086261615 0.196873984653 0.146951140028
0 0 0 0 0 0 0 1 0 0
0.09266457959 0.32876603504 0.271045950859 0.375386103033 0.71632104471 0.307100447887 0.189275831603 0.160292455999 0.0920399159497 0.346378196949 0.277338279493 0.396770109673 0.668153176519 0.349267308324 0.211674434686 0.154872112051 0.0845386760835 0.300576278618 0.252900248713 0.371719651929 0.734517623195 0.3210526861 0.185105701095 0.153355765898
0 0 0 0 0 0 0 1 0 0
0.0806425545342 0.286065178577 0.204855640155 0.347386666774 0.746456095647 0.365006781447 0.194301017009 0.144362820718 0.0751125567563 0.321520393286 0.212630279916 0.353935083069 0.695808281177 0.414247207883 0.215404720417 0.135469386146 0.0717408365035 0.264827697576 0.198687446822 0.332248082216 0.756559126369 0.379079646863 0.198207396615 0.139587932438
0 0 0 0 0 0 0 1 0 0
0.0522648054593 0.286727289325 0.167789858152 0.362062106569 0.800771483645 0.305101634995 0.113745949381 0.0924842065355 0.0580212362701 0.317270665687 0.176592414091 0.355929142052 0.75527549243 0.364919881059 0.160046882887 0.0942328614654 0.0481868622321 0.264420944752 0.167386881806 0.336808320017 0.817927368926 0.311304977006 0.112792951595 0.0875394663884
0 0 0 0 0 0 0 1 0 0
0.0781417873737 0.271277414932 0.175722550248 0.419602103928 0.737282234572 0.356654552988 0.168824849264 0.118611515526 0.0715652989686 0.290796640939 0.169231058725 0.423125486183 0.677162862017 0.446992360411 0.182084590517 0.105521956217 0.0707983019438 0.242853623629 0.168411934389 0.404445137 0.759427648063 0.361249137213 0.158297891254 0.108543794335
0 0 0 0 0 0 0 1 0 0
0.071196623149 0.0779453052768 0.183871988499 0.383530367939 0.839007212597 0.273341359163 0.121278948413 0.120805356685 0.0709311316637 0.0741633423591 0.183302631647 0.414683199936 0.823454001618 0.27664099664 0.122653859267 0.119397902566 0.0668192399746 0.072148232529 0.187342071582 0.340860857088 0.858843800038 0.273408951331 0.118040835075 0.112906508916
0 0 0 0 0 0 0 1 0 0
0.0782955687032 0.257130324622 0.225438089396 0.357078973294 0.727494275386 0.407028691857 0.194730085078 0.128786614265 0.0743405925566 0.265315066219 0.314767821365 0.357493495662 0.630446240372 0.476766140457 0.240497458275 0.120803845157 0.0690701388158 0.234325484205 0.18766802527 0.354389049998 0.737267242134 0.428772276415 0.194355187251 0.119697145958
0 0 0 0 0 0 0 1 0 0
0.209016821672 0.274979924147 0.303650816712 0.451917425467 0.654418135193 0.280694053085 0.183553861142 0.208615830168 0.187754596626 0.258131840338 0.281222074591 0.458903793675 0.681909747789 0.275904134573 0.17491906498 0.191616654978 0.217568637643 0.279446633231 0.301203496995 0.448486401867 0.640389315477 0.301793513639 0.192861690657 0.21056218999
0 0 0 0 0 0 0 1 0 0
0.225550455286 0.318315182515 0.335361164349 0.489269087288 0.554859060868 0.291510993688 0.229873711548 0.224191717604 0.215034244688 0.307001288189 0.324327335955 0.493824057626 0.571780109496 0.291300014771 0.227114231877 0.217004597606 0.237511248054 0.305294138481 0.326984663417 0.466075154572 0.55735611368 0.323550330302 0.240493695233 0.230371450263
0 0 0 0 0 0 0 1 0 0
0.232808359783 0.32173868674 0.373671805255 0.453558370148 0.536048442302 0.309543310624 0.254321551358 0.221572170553 0.226702887508 0.307854916347 0.361980140209 0.439675784533 0.561668374503 0.329297195719 0.246279228648 0.211955819401 0.240974315332 0.322042209473 0.365717537441 0.436246605343 0.52795466059 0.343221196817 0.260531944794 0.223038043754
0 0 0 0 0 0 0 1 0 0
0.247283773782 0.310205492211 0.371564820341 0.429373261426 0.501669321653 0.37625199124 0.272424054057 0.229671374041 0.235150618985 0.294661227726 0.366947169224 0.419799551979 0.499468870298 0.419335248843 0.273719864884 0.216248215416 0.256692118656 0.293902764292 0.369959688338 0.407477015119 0.482000533439 0.418721990449 0.28807582253 0.232770989319
0 0 0 0 0 0 0 1 0 0
0.264782364032 0.335622173305 0.40695736586 0.445597261827 0.487457149125 0.344786764015 0.239517816669 0.198029466832 0.256267979958 0.332048725664 0.423274508815 0.436237970363 0.499288173304 0.339414533633 0.239665452284 0.180762426886 0.262692319146 0.330290963535 0.404051414651 0.398523911558 0.505902455258 0.37559836594 0.249100098425 0.201889785118
0 0 0 0 0 0 0 1 0 0
0.266376204849 0.365499145671 0.474307279497 0.429020652895 0.526340143985 0.292492828745 0.110477994689 0.107873011743 0.264677330343 0.360184403858 0.483995688308 0.426180701296 0.529350396082 0.282751869627 0.113216456053 0.106549810098 0.220765571633 0.305882553569 0.516193309803 0.394220463481 0.580717473528 0.258096654901 0.130949202978 0.121814440028
0 0 0 0 0 0 0 1 0 0
0.251494268897 0.491590978518 0.388122510717 0.561222942219 0.361302629046 0.281555331487 0.0828816263594 0.113120775813 0.241576130823 0.495447630774 0.393554754011 0.55953232396 0.361114253886 0.278366992465 0.0847577950874 0.11460925588 0.185577344489 0.51971166277 0.379419175404 0.602288599734 0.341470465135 0.243836313178 0.0699877466834 0.088282828961
0 0 0 0 0 0 0 1 0 0
0.111897651269 0.175918388971 0.523934872653 0.310183246964 0.681306349161 0.291636334501 0.164334270888 0.0978488272107 0.10230837947 0.165358940481 0.532707847501 0.289569727892 0.681396405425 0.308925389613 0.166639650096 0.0840024257666 0.107759302842 0.166117416684 0.518633568857 0.274192382075 0.701244353753 0.297630326376 0.165604465041 0.094225271031
0 0 0 0 0 0 0 1 0 0
0.133119365403 0.176344906468 0.516985121673 0.301686224658 0.69415883645 0.266111221835 0.168375595799 0.108956415457 0.134054012528 0.163436274904 0.515033157478 0.280785135923 0.705168760832 0.277641300483 0.159433827916 0.107013276949 0.122867447197 0.162356307283 0.502848606904 0.270950672521 0.719680510331 0.276501315505 0.164338679778 0.1042727932
0 0 0 0 0 0 0 1 0 0
0.0804620471572 0.0758520406037 0.18075874436 0.385690968463 0.813298130967 0.3094127928 0.163287206917 0.149960801418 0.0806622143933 0.076140265918 0.189760614033 0.389782427861 0.793294773763 0.338577097601 0.180440946376 0.152469180947 0.0742601188098 0.0705717801027 0.1862023732 0.372099342559 0.820244241773 0.310595707303 0.159984627996 0.146664321964
0 0 0 0 0 0 0 1 0 0
0.242124295615 0.256348215605 0.285325481888 0.260054199722 0.68853655377 0.411081876243 0.212229357075 0.196240682743 0.278345599152 0.273756284431 0.292890757532 0.305678757514 0.628471920727 0.426447688992 0.222088781527 0.20542325101 0.213891154111 0.240566111079 0.27506036029 0.211031527234 0.709857690697 0.435154783766 0.217152916019 0.189137508952
0 0 0 0 0 0 0 1 0 0
0.151169015844 0.298284920299 0.259198479781 0.156626670783 0.734295368174 0.423249166473 0.228940598723 0.160358743645 0.168232957062 0.32442622678 0.263698510713 0.212404197655 0.681970384046 0.428284717806 0.280559578467 0.156741081117 0.138499413348 0.280018152865 0.254962615535 0.127639578897 0.749523372305 0.430059183992 0.226157269897 0.152402923373
0 0 0 0 0 0 0 1 0 0
0.110826742372 0.265415553538 0.264133352796 0.304662045807 0.655539066174 0.494483503441 0.257387861938 0.119133173264 0.0988235345207 0.293624849489 0.284140102702 0.321072323635 0.589236099149 0.520091799926 0.304600638355 0.0985855569691 0.102919558523 0.261946331215 0.26079714731 0.24714213856 0.687313373581 0.488673555704 0.259715562459 0.11420860041
0 0 0 0 0 0 0 1 0 0
0.12660646731 0.298059684585 0.246072530297 0.220099831528 0.711910838119 0.44249628433 0.249580097333 0.145689302258 0.124518679487 0.307638812319 0.238557936248 0.306763773618 0.666006629327 0.460601195645 0.257297366243 0.130074330481 0.117448079264 0.271551120632 0.242176417438 0.180738134937 0.735762751418 0.447621772506 0.245854597026 0.137817584156
0 0 0 0 0 0 0 1 0 0
0.120432537267 0.270378570163 0.259699344771 0.279989873016 0.649151278059 0.50658361907 0.266106880006 0.133101981937 0.114028830168 0.288893182588 0.258596291253 0.332968052505 0.614569570408 0.498750410626 0.293436179032 0.115090698884 0.113374309466 0.251765900854 0.255719103422 0.245511580374 0.66384301629 0.522737285825 0.26123588611 0.126118962521
0 0 0 0 0 0 0 1 0 0
0.12444011158 0.248741235693 0.232572360436 0.275148854308 0.712542411056 0.462457629854 0.235259451453 0.126154290332 0.127729276099 0.259816150868 0.22702527901 0.265392855766 0.671573204592 0.499739569261 0.281944154361 0.118170394706 0.114361087915 0.241178171516 0.229056564976 0.264585411733 0.723618111835 0.461819276319 0.234072402165 0.120798078974
0 0 0 0 0 0 0 1 0 0
0.148210250326 0.248234960174 0.245428549575 0.265020472626 0.689741593691 0.446007480705 0.292925725188 0.159594746153 0.154672637429 0.240950086183 0.222017921095 0.340861618739 0.636374330967 0.475989992066 0.309982991715 0.157837302212 0.142034444726 0.234032155385 0.251040689495 0.208717127873 0.708853732613 0.449440625165 0.297517497818 0.159636299793
0 0 0 0 0 0 0 1 0 0
0.162624026627 0.285850814865 0.3173862725 0.257804574531 0.618253971952 0.432088770368 0.343224147453 0.194689491954 0.14431869935 0.29339908962 0.30433209384 0.329543065063 0.586473791824 0.448218362885 0.348409397304 0.160100326991 0.15750947887 0.277465942997 0.307174914632 0.20900138555 0.640615074656 0.428497936792 0.355961036406 0.19864287566
0 0 0 0 0 0 0 1 0 0
0.111074092343 0.332042645632 0.339214804526 0.331476422561 0.651911495246 0.407539055041 0.204878381034 0.139338060615 0.104451430314 0.362633092772 0.34786094562 0.34914997006 0.572076512268 0.459803698304 0.2383720601 0.13842681732 0.109438965541 0.325984541145 0.314201602425 0.291544434911 0.674081023846 0.424185793922 0.211002445049 0.138547973536
0 0 0 0 0 0 0 1 0 0
0.120391175598 0.256002536403 0.249591461605 0.298775661392 0.728366612366 0.422298965135 0.207992884671 0.127634221935 0.148813066361 0.26572592955 0.236756691877 0.322692136244 0.689442176773 0.456302838554 0.219793240013 0.123323119328 0.114227449341 0.24523058633 0.249461232602 0.272582889657 0.755757949293 0.409373785782 0.192905718203 0.119633275133
0 0 0 0 0 0 0 1 0 0
0.0836234677477 0.0817124786413 0.215127829216 0.372501320995 0.802615424679 0.326531416381 0.173227623625 0.143076462168 0.0881456117812 0.0835061440187 0.218358222989 0.378665043708 0.78756434661 0.338422243712 0.19828718913 0.141719870514 0.0802459231199 0.0796235289582 0.21423236282 0.344119585799 0.816967453726 0.325190218538 0.174592293282 0.138708050581
0 0 0 0 0 0 0 1 0 0
0.122661379301 0.30653564055 0.26610403723 0.340228643316 0.663445854465 0.437632051312 0.231374326687 0.138588980608 0.1276316251 0.341277827373 0.274317044208 0.416239619405 0.553828184853 0.478955312365 0.252238732805 0.137790142631 0.11544476442 0.287962046852 0.264162575778 0.271441054796 0.699773768419 0.443871688668 0.235481902506 0.134651861828
0 0 0 0 0 0 0 1 0 0
0.115869285987 0.231039247729 0.209884689291 0.28479979913 0.749631883806 0.423397123108 0.221205000521 0.133745762022 0.108906801693 0.246386666023 0.209527040921 0.384363104164 0.675468642019 0.447160246884 0.25379165746 0.123190764637 0.105569185647 0.214412453451 0.215131154412 0.21201678358 0.779364646132 0.425098309325 0.217021071755 0.128194956651
0 0 0 0 0 0 0 1 0 0
0.213817696325 0.217425129139 0.202634654604 0.306683323893 0.710664264239 0.396353796683 0.247418356244 0.220311075389 0.238480323904 0.217867164297 0.192078146399 0.347413958066 0.641053550981 0.45117408 0.274958570069 0.218999178778 0.202979065359 0.215253845122 0.198081873433 0.241043602604 0.73874458207 0.405481131504 0.243269598934 0.213981847219
0 0 0 0 0 0 0 1 0 0
0.116208255401 0.231460850807 0.202647701955 0.280581774553 0.762712242068 0.398510217945 0.240778535759 0.120890989377 0.10921998911 0.263134225141 0.197380867448 0.303209402047 0.719540851676 0.43337156564 0.266882885504 0.105639952205 0.0983331101086 0.217529094859 0.198841224981 0.252958777721 0.789211925921 0.389068286358 0.22926267319 0.112670970459
0 0 0 0 0 0 0 1 0 0
0.148543680075 0.269212940766 0.246239024144 0.295873474145 0.707290912513 0.433402262689 0.230683299778 0.12637902079 0.168701429424 0.266675485411 0.230315976341 0.371837977618 0.641828750514 0.459491029756 0.267594468311 0.120133807692 0.139571361754 0.262381970459 0.242241363076 0.251660629252 0.727582904673 0.439076322437 0.228971279257 0.122755201257
0 0 0 0 0 0 0 1 0 0
0.152594713796 0.28635821436 0.255724339314 0.258067189786 0.707275614351 0.42361388827 0.248032717008 0.146671280526 0.178757753422 0.269487674887 0.223522998589 0.383388549929 0.649284093179 0.419914843033 0.277067845213 0.154297918505 0.144516944938 0.271971018853 0.251803395248 0.198253047307 0.732986972656 0.427182111571 0.247345288977 0.146639852686
0 0 0 0 0 0 0 1 0 0
0.125551107726 0.269720569621 0.270792129573 0.247173162294 0.769335397308 0.353212949225 0.214758473742 0.119612879658 0.133228468349 0.27147697272 0.26726431433 0.375158206602 0.700736230984 0.384562425199 0.209848414406 0.115847544178 0.108362758728 0.25888731881 0.26733566965 0.208890138442 0.790493798972 0.354137810618 0.207717496685 0.11265356152
0 0 0 0 0 0 0 1 0 0
0.0994211889454 0.284555610498 0.25452132414 0.253866730719 0.725751576004 0.44512352603 0.208699784696 0.107276309993 0.101863864124 0.309287913656 0.245001027176 0.295969800419 0.679355393243 0.45992836372 0.248308120403 0.107825511052 0.0903726619 0.2784670746 0.256161533211 0.240946806032 0.732560938239 0.447026528946 0.208826826433 0.102605490388
0 0 0 0 0 0 0 1 0 0
0.0908679335202 0.106012589107 0.266654114437 0.345244059321 0.710122082849 0.472729606528 0.227494362135 0.103470450491 0.0729582369206 0.0913568555897 0.355894970218 0.39805380741 0.637091484181 0.467462460337 0.264752254864 0.0819907902488 0.0857012273475 0.0983897403048 0.215704720275 0.252551588411 0.746399982553 0.501805597183 0.23287364035 0.0975295021382
0 0 0 0 0 0 0 1 0 0
0.0983638968076 0.114614825658 0.181392410052 0.411880936138 0.673326337252 0.510874270331 0.215897023069 0.116903688876 0.0776605901409 0.0945089288443 0.198423461324 0.478872558976 0.62090899128 0.50088381499 0.264279857889 0.100447411647 0.0932803844321 0.101007090946 0.165284330638 0.30417841246 0.697195286284 0.559197054493 0.221424265887 0.115937924788
0 0 0 0 0 0 0 1 0 0
0.117101263528 0.0721709205713 0.218339873627 0.425260297796 0.766930225564 0.300061606472 0.212733962075 0.170544286989 0.14763476824 0.0695440299829 0.227313749652 0.42260569775 0.754743729371 0.309022483195 0.219621290053 0.172435446933 0.110104972827 0.0644384029007 0.221002424091 0.422366241918 0.774350492659 0.296386935402 0.204484201672 0.164959339632
0 0 0 0 0 0 0 1 0 0
0.153705811822 0.199018398733 0.281570873544 0.513082899955 0.62338274222 0.386394261707 0.171068199645 0.164496454721 0.132629859543 0.209555971879 0.288729155546 0.545726808866 0.551992601076 0.426882479294 0.224184214259 0.141881271262 0.165805374698 0.196033837568 0.273022961019 0.409534441529 0.654745927647 0.437571501973 0.207023076202 0.169704781955
0 0 0 0 0 0 0 1 0 0
0.134695322421 0.152577892189 0.205223776854 0.400930219658 0.713399323885 0.453576104324 0.160041485733 0.124226254967 0.118610471732 0.140861482079 0.214256588295 0.488140678993 0.654051038258 0.458711051784 0.178389323531 0.109000230826 0.133679029081 0.143693194658 0.198166222849 0.304692749291 0.737082911983 0.488577024588 0.178440332936 0.124639396396
0 0 0 0 0 0 0 1 0 0
0.168869134111 0.188132595961 0.202720880554 0.430679060566 0.694436977545 0.427605564405 0.160557707874 0.136532491409 0.167515381968 0.177523164173 0.18750433694 0.488867547175 0.635703002318 0.454925154752 0.197575022371 0.127136442009 0.15852487382 0.177302574957 0.195816214672 0.337323796837 0.733122528621 0.455124531315 0.172520129199 0.13012360085
0 0 0 0 0 0 0 1 0 0
0.188065044851 0.20516652184 0.305880908778 0.435012420652 0.651340984359 0.399119799786 0.187143408367 0.145516160486 0.172827970664 0.211526449046 0.371463805401 0.542928960109 0.552923649696 0.369690672668 0.18637411042 0.124494074461 0.183406552797 0.185861601141 0.242074987501 0.29319775891 0.707306648788 0.46765060598 0.217921644229 0.144161882937
0 0 0 0 0 0 0 1 0 0
0.171610584203 0.165554979053 0.249701561918 0.413308215837 0.691128848625 0.422733896896 0.187513129901 0.135803527665 0.150243443613 0.147105318493 0.243366463175 0.543932378752 0.597631376991 0.4353653251 0.202362328378 0.114195113112 0.175935587114 0.160112762485 0.249538389323 0.269628043066 0.718462908899 0.478453771264 0.208683500561 0.140663133109
0 0 0 0 0 0 0 1 0 0
0.163525610138 0.252700007609 0.332509916903 0.441825022616 0.614668063202 0.421637256644 0.175948850736 0.130679314922 0.14540807937 0.25871715816 0.325249098037 0.461593686471 0.585386909405 0.436886888042 0.219080214791 0.107340990333 0.172820269704 0.231766181335 0.31952701569 0.354298869554 0.638361364969 0.469593193772 0.20350539174 0.139122048778
0 0 0 0 0 0 0 1 0 0
0.147940279209 0.176111410808 0.207964314062 0.395734668443 0.662495760139 0.498099077322 0.213319618287 0.121386895761 0.121033145517 0.166987209224 0.177477222192 0.437882134144 0.596827421297 0.550966097634 0.254739361029 0.0978190586223 0.142077776098 0.160553764044 0.20426435183 0.304027340424 0.701610031345 0.508475350187 0.23405366838 0.11956131365
0 0 0 0 0 0 0 1 0 0
0.1592304382 0.166595860273 0.204921022583 0.35341542183 0.662076541743 0.534367613261 0.199240908951 0.128083441469 0.140190552962 0.152128306795 0.194125952196 0.418031437905 0.636306287224 0.537936607446 0.199270848489 0.103913728113 0.156933643614 0.15226467653 0.20426730991 0.274060317868 0.688068899096 0.549126878641 0.210546265643 0.126665857002
0 0 0 0 0 0 0 1 0 0
0.124786596159 0.159980064379 0.207405408749 0.365990610059 0.707195576341 0.481603299106 0.191364483448 0.114807960353 0.111119650341 0.168153261881 0.19974396178 0.458059849777 0.65603258322 0.464852896863 0.228315720841 0.10519217286 0.114460882095 0.143467160297 0.198963345555 0.272482189016 0.741479362472 0.501267933144 0.197705159982 0.111060380547
0 0 0 0 0 0 0 1 0 0
0.0946634575822 0.0906597977251 0.260122400522 0.366565857299 0.787720076879 0.330725402232 0.169770576632 0.148597375464 0.10022851744 0.0907886664466 0.269418743968 0.390473159349 0.76498477308 0.346368331289 0.170531180227 0.149674002986 0.0896241540756 0.0910191715286 0.257735191741 0.338989241098 0.805634013721 0.327851970612 0.158917643958 0.143366629727
0 0 0 0 0 0 0 1 0 0
0.134090922152 0.166932722226 0.229054532254 0.398134804405 0.665583338978 0.479165529627 0.239163730682 0.115653420356 0.124970220369 0.161302534048 0.214618546204 0.489600068896 0.592854169797 0.484934619183 0.276112937478 0.0985828733761 0.131777165355 0.158045262043 0.230164959727 0.293551019127 0.703293018361 0.496305791006 0.255761238086 0.11024538789
0 0 0 0 0 0 0 1 0 0
0.172810144034 0.160826510291 0.220068679156 0.358710103389 0.652216948306 0.517201341463 0.228918131767 0.147921058567 0.160794496528 0.138645723106 0.200606917593 0.339600214604 0.60064963368 0.5859056583 0.276712150623 0.136806487549 0.161752869871 0.148520999047 0.218190849509 0.322309856373 0.673243759835 0.521443725745 0.233544448891 0.143467427391
0 0 0 0 0 0 0 1 0 0
0.163927419783 0.176869058187 0.249840455948 0.342862279406 0.667132345893 0.485827890507 0.247653136781 0.139441596888 0.155508102774 0.171601439733 0.238283411279 0.341945473272 0.633395773156 0.521531501 0.291492611655 0.120462568607 0.158694232134 0.16314854217 0.249365865241 0.302779837284 0.689549842622 0.490276091092 0.248308910317 0.129741216899
0 0 0 0 0 0 0 1 0 0
0.144867651989 0.152624675323 0.23601267616 0.336382268619 0.649755528837 0.540528254327 0.239052590709 0.12395513638 0.137460568462 0.144831938381 0.234494194258 0.346498364493 0.59827045767 0.57078373507 0.299553770663 0.107822000286 0.139730440335 0.146329356132 0.233108302228 0.306240946722 0.669597752022 0.537971805361 0.244736488803 0.115192724311
0 0 0 0 0 0 0 1 0 0
0.134819265394 0.168671850965 0.239171203773 0.341212568852 0.686885081517 0.491077427833 0.228639288262 0.12041848296 0.120419894786 0.154194798639 0.219277673894 0.339906709454 0.635707880226 0.54604377627 0.290014728757 0.108198364733 0.129411266493 0.158947083252 0.240793733855 0.316391766577 0.691786875766 0.500811357693 0.238505988511 0.11677744892
0 0 0 0 0 0 0 1 0 0
0.285007817752 0.260664387949 0.366574115012 0.35285327276 0.553481072144 0.454558225583 0.165598552344 0.227057808884 0.264979348488 0.237930086829 0.348231608635 0.405484542467 0.530991425467 0.454526028921 0.235895293684 0.208086176272 0.257935533542 0.220871871728 0.363510009833 0.31881637332 0.581202725437 0.483947041004 0.208658613617 0.188047084746
0 0 0 0 0 0 0 1 0 0
0.178468754462 0.181668001302 0.249541253481 0.364468043792 0.658798753027 0.486383957969 0.224784004862 0.137567614099 0.177179386525 0.195000071988 0.267114177439 0.405515163563 0.604281506281 0.497512225924 0.258056125412 0.124588874328 0.180607535364 0.171078073205 0.255292676083 0.303327626018 0.650749204061 0.528868998207 0.242339068199 0.137934926847
0 0 0 0 0 0 0 1 0 0
0.154871295753 0.163449144455 0.288826741245 0.365557360461 0.628474298433 0.508560673762 0.244762449964 0.136834312522 0.140681889526 0.149165530721 0.258840850513 0.378524994814 0.619306203906 0.522052639987 0.278984989294 0.117331732471 0.144572941731 0.153604085742 0.288698058139 0.327136398352 0.630127548045 0.531046195362 0.264067665382 0.127816810901
0 0 0 0 0 0 0 1 0 0
0.140981259383 0.147802933224 0.226125855103 0.310449323417 0.644585014338 0.543775834241 0.286573464973 0.132138348848 0.120848876486 0.126403171775 0.207458645607 0.297603590705 0.652283838997 0.540177621617 0.32798121675 0.113899307836 0.132513061441 0.135569246773 0.221220799792 0.279640957867 0.665778219991 0.538280437043 0.297782160542 0.123462051035
0 0 0 0 0 0 0 1 0 0
0.146715948954 0.139193702667 0.240904759304 0.314905660814 0.657457184051 0.532986510443 0.254406226999 0.144401411635 0.127185059391 0.128069169661 0.227818224047 0.311774704606 0.631121105206 0.562372696802 0.300004083002 0.117210449397 0.14258457882 0.125571420266 0.235401693832 0.295424753218 0.662280922143 0.54748185227 0.255674382763 0.132249482502
0 0 0 0 0 0 0 1 0 0
0.078544704382 0.0842981847852 0.255383419474 0.355099638823 0.768121956762 0.391495250812 0.192709270587 0.12243923465 0.0856706913399 0.091749977605 0.276059090499 0.386100644607 0.732001212448 0.400404388579 0.219438189822 0.121068478437 0.0736238083397 0.0822636353846 0.262042248703 0.349844734834 0.774639481707 0.387212474378 0.182216487766 0.116413380657
0 0 0 0 0 0 0 1 0 0
0.13995117577 0.170965996774 0.258063816419 0.315325890901 0.610453700024 0.566058931446 0.278108105696 0.121393547334 0.142151119318 0.188024267875 0.257642139879 0.3113361026 0.585443276741 0.56827987161 0.321187155559 0.110829875434 0.132148270263 0.156550202466 0.249025653923 0.293830750083 0.607592368662 0.593045668433 0.274781499783 0.115334551817
0 0 0 0 0 0 0 1 0 0
0.156029769763 0.186643631446 0.283733307068 0.363867613143 0.574396785023 0.509333918546 0.345633862559 0.138199718453 0.118821537819 0.171417520617 0.279879600074 0.343738790212 0.562158941719 0.517288086763 0.407136665047 0.103143709721 0.142328764876 0.168627721729 0.277562334607 0.331689751458 0.588136445425 0.52190046201 0.358880918479 0.131027436083
0 0 0 0 0 0 0 1 0 0
0.138225845804 0.16367180722 0.23267899898 0.322620956781 0.598367774112 0.582226153159 0.288223092042 0.125608596238 0.12257168216 0.146840123711 0.204556034925 0.314364859105 0.599234468075 0.608981729342 0.289639641326 0.0944134974883 0.124737461856 0.140761561007 0.216260551077 0.302687026553 0.615480897314 0.594057842923 0.285971861131 0.112859760329
0 0 0 0 0 0 0 1 0 0
0.137282264386 0.165829608321 0.254871820051 0.347810071276 0.600273430548 0.549554080032 0.296878209515 0.13133194952 0.111438025744 0.149788977513 0.225124039198 0.367597132195 0.588174658952 0.567290284129 0.31943190311 0.0976314876775 0.127880652572 0.148540668437 0.238845641834 0.319283144968 0.606717267611 0.567159284142 0.313952948977 0.119378769711
0 0 0 0 0 0 0 1 0 0
0.128839029667 0.141240320811 0.239106667671 0.336117753072 0.583349404596 0.605708382717 0.268124467145 0.119308973419 0.106163756078 0.123573662463 0.217192416747 0.314122408073 0.584641420954 0.617148722411 0.309568471837 0.0954075378046 0.120686960358 0.134202077655 0.236590480324 0.316808016416 0.602219959785 0.600207877715 0.275085786333 0.111765464389
0 0 0 0 0 0 0 1 0 0
0.175439234485 0.181715856312 0.296072844235 0.332201691826 0.546984628983 0.576224501397 0.287729529855 0.155461206474 0.162253575477 0.145456787089 0.279024274582 0.33014597397 0.518142712335 0.623932743789 0.308241013628 0.113528537376 0.165483449852 0.164431850806 0.278100147672 0.330871299791 0.566716285802 0.576132877258 0.292631334487 0.141535671581
0 0 0 0 0 0 0 1 0 0
0.143771505749 0.193208982255 0.279706255964 0.343425670127 0.589074997831 0.536561411676 0.302337634097 0.139670026217 0.111656396395 0.162152319245 0.247640510625 0.338150956193 0.591388064624 0.56426765021 0.327550659436 0.100699177154 0.131187229185 0.178420045195 0.266660148457 0.323321482658 0.613214582639 0.535936823494 0.31010351218 0.126044401081
0 0 0 0 0 0 0 1 0 0
0.13150968708 0.155072997821 0.251272472936 0.317096824768 0.48760066325 0.661093358257 0.324951261681 0.120735901934 0.116504628718 0.142194407561 0.230000185262 0.314421917107 0.493496427298 0.674055946531 0.328553607617 0.0927824276508 0.126524820598 0.145477581003 0.254477588898 0.305970248444 0.488444656264 0.661139785883 0.340976602707 0.111812632157
0 0 0 0 0 0 0 1 0 0
0.157381331156 0.15367683513 0.247245234746 0.350134624363 0.646673556225 0.516358946031 0.2554907259 0.13342160686 0.137798132819 0.140950904854 0.232937809967 0.415111685822 0.60421760143 0.534093598008 0.269716428569 0.107167853588 0.149148664579 0.143261707546 0.242147682013 0.302954731873 0.66872851158 0.523752879835 0.262304920968 0.128432537298
0 0 0 0 0 0 0 1 0 0
0.145521226811 0.165087932308 0.241289926077 0.328111036398 0.671364146396 0.497967738639 0.26646116531 0.126446147081 0.132379075214 0.163282526539 0.228625740309 0.3543135046 0.622230679854 0.524901112985 0.321074944006 0.110568943498 0.131358486896 0.156689742452 0.234685740099 0.290990902149 0.690314634947 0.507140837284 0.267631540738 0.114400197248
0 0 0 0 0 0 0 1 0 0
0.0903042931935 0.0778886315814 0.213580811782 0.337423107355 0.765810581053 0.400004328291 0.245075730605 0.140627012791 0.108125821583 0.0814772630766 0.22734973791 0.336463093649 0.75033262553 0.398092946565 0.275471001457 0.139332802703 0.0850954364785 0.074918482251 0.220366515457 0.31883956785 0.769653724798 0.403340869525 0.249364127032 0.140330807634
0 0 0 0 0 0 0 1 0 0
0.171399311905 0.137970586805 0.226291498877 0.338974673706 0.688249342047 0.468063828013 0.267861537101 0.144755014408 0.168982484921 0.126819636046 0.21531027626 0.316997945186 0.668912357085 0.480341753344 0.338411253814 0.125783024345 0.164941697266 0.129580908742 0.216420076298 0.310037669769 0.70747937592 0.471891417451 0.266618085991 0.136924203483
0 0 0 0 0 0 0 1 0 0
0.162511748808 0.146865346226 0.228426380964 0.320251899665 0.684280436343 0.486980409453 0.27481075174 0.127945405514 0.154564838346 0.133385303071 0.211870556412 0.316985445264 0.665793323048 0.495370751153 0.33503783038 0.109662612542 0.1555685363 0.131832650182 0.221601704713 0.28997173955 0.709272343828 0.484732864181 0.271143272925 0.116943472674
0 0 0 0 0 0 0 1 0 0
0.173096090291 0.146330784389 0.241869492135 0.321648705093 0.634513429485 0.53974977886 0.26713635427 0.146175772965 0.161422722295 0.147653890218 0.232476206047 0.318605901756 0.635034654618 0.540709089738 0.291182122837 0.12713679824 0.145727071174 0.130597298347 0.217881913698 0.293069303282 0.65994157249 0.552714663978 0.26310641984 0.134552794511
0 0 0 0 0 0 0 1 0 0
0.242763498029 0.185615294936 0.262674862908 0.271932354631 0.68660592242 0.434481497006 0.274156221358 0.168238103769 0.240901939366 0.187329787622 0.252722885625 0.276955161232 0.642955561827 0.475959978048 0.321864140095 0.150912253183 0.238921610455 0.173339105615 0.255122437145 0.234473688097 0.703648330396 0.435669124975 0.285283896055 0.162754998398
0 0 0 0 0 0 0 1 0 0
0.263429997528 0.163741053291 0.23831152339 0.300741397655 0.626391948831 0.491223159873 0.300584407192 0.180382042408 0.316050417511 0.160463521004 0.228119653712 0.321906606227 0.566931006701 0.4981131015 0.346489594407 0.170641979592 0.260843363393 0.154229206894 0.235666451784 0.267772788606 0.620777507338 0.512579482219 0.3192155215 0.17587541137
0 0 0 0 0 0 0 1 0 0
0.16727690238 0.209456137971 0.345191519463 0.324891601013 0.696096745951 0.382446747375 0.245503590414 0.111115343097 0.169237279462 0.225186991166 0.447329102579 0.352895956822 0.600961901457 0.3683063513 0.297017434793 0.104816734893 0.165929174996 0.198098495974 0.302428138653 0.269011001062 0.721664086116 0.40967949828 0.263350174476 0.106794841354
0 0 0 0 0 0 0 1 0 0
0.127417261539 0.169861243872 0.259014935408 0.393555960815 0.735709912875 0.36791894234 0.214608718715 0.101225698571 0.122414691333 0.156464945684 0.304746581293 0.454415629839 0.625228960949 0.424386915366 0.285830417065 0.0919499092095 0.128076041008 0.16072395908 0.241362381618 0.292863712159 0.772989911214 0.392410835766 0.229917641498 0.0968379822252
0 0 0 0 0 0 0 1 0 0
0.0964288056313 0.185363877101 0.227451327457 0.328781695056 0.7400887267 0.427331368846 0.241590448517 0.0883223762234 0.0889422570555 0.189090121329 0.216590797562 0.345244267728 0.648934903668 0.5018031193 0.33295493415 0.0802941780242 0.0881981948712 0.169677337288 0.218269978243 0.300231078009 0.76795651002 0.413320952436 0.242849803043 0.0779920392448
0 0 0 0 0 0 0 1 0 0
0.111486243984 0.200760465157 0.264573422774 0.341596408346 0.712755580863 0.422348030839 0.248593550249 0.111273179017 0.116853298615 0.210607762301 0.262090121676 0.34044127163 0.627392565829 0.477186108713 0.352064495498 0.110094335712 0.105849647371 0.184714813122 0.269779557479 0.316537431919 0.734062736407 0.416318018127 0.241750936304 0.105294948232
0 0 0 0 0 0 0 1 0 0
0.102077432106 0.117044797517 0.227154715727 0.369195013482 0.640303892301 0.458051272808 0.370941206113 0.174868719223 0.102289035386 0.116978614434 0.221474487579 0.346068908657 0.629107048446 0.472197126845 0.404051473599 0.158224272772 0.0970044611803 0.112572332015 0.228590755826 0.36453000853 0.646444500574 0.468154593424 0.356549585423 0.169100329025
0 0 0 0 0 0 0 1 0 0
0.16086019693 0.0681606403125 0.241263150577 0.321774683498 0.789425623882 0.352665487431 0.181680273043 0.164796195674 0.206893077926 0.0688216343447 0.271676212665 0.332623072563 0.74981651018 0.358702232029 0.203760460082 0.188685846657 0.156958153309 0.0663609839356 0.254875639916 0.317691875641 0.793908188684 0.34280188273 0.176660358477 0.161426184774
0 0 0 0 0 0 0 1 0 0
0.092741860435 0.173299452989 0.258371751945 0.299983202522 0.756349307536 0.412034951786 0.226496836863 0.107156284491 0.0823280673407 0.164837907839 0.252677901162 0.274846716144 0.676594973614 0.514759532904 0.306599480579 0.0995104910558 0.0851999461497 0.155930106951 0.25976237944 0.281103661027 0.76818702901 0.414734441242 0.223059339435 0.100297416251
0 0 0 0 0 0 0 1 0 0
0.15020370045 0.195977641706 0.25366604598 0.309521455944 0.72871707147 0.405295408671 0.256975619041 0.132484755448 0.138362848507 0.190660810522 0.239134719804 0.289332420072 0.668785735967 0.46971439908 0.351027970065 0.111709000803 0.140167569759 0.179670485842 0.250384804099 0.298368394106 0.733278791051 0.414827908881 0.266022031854 0.12572835542
0 0 0 0 0 0 0 1 0 0
0.10101441051 0.170278494334 0.238564853349 0.341123039873 0.746467161925 0.406733520464 0.233264555702 0.102300890522 0.0916948838444 0.168457447452 0.238680510257 0.342188797052 0.683184425642 0.471878037107 0.304412893182 0.0841161517877 0.0913524749748 0.157481689794 0.236082232256 0.328650661675 0.748279658496 0.423806891581 0.23489745613 0.0916330798467
0 0 0 0 0 0 0 1 0 0
0.15950933805 0.228233004151 0.329790735293 0.258736575616 0.660772611746 0.43901320086 0.310836054213 0.144179869198 0.144585969622 0.217064241913 0.298938484678 0.318450167726 0.608079441154 0.471120163107 0.367144734504 0.121215570001 0.154782533221 0.219543571676 0.327058181391 0.227211331739 0.660821503616 0.449941504999 0.333132640662 0.1383516188
0 0 0 0 0 0 0 1 0 0
0.111837279457 0.159788051394 0.234537657947 0.321825290694 0.763623221353 0.394325709341 0.226593717686 0.11585710465 0.127368755144 0.159304122337 0.231215255155 0.314827915058 0.676130220225 0.500945381867 0.287536168735 0.12266575666 0.107628020539 0.149458916503 0.234352754453 0.306603453442 0.7728448703 0.394958754032 0.229277898211 0.106307971228
0 0 0 0 0 0 0 1 0 0
0.189628456811 0.169955334776 0.238019227116 0.238223623189 0.749980291194 0.399798718969 0.275321510455 0.153756945984 0.195836260783 0.164483648638 0.23445008656 0.34296879997 0.65842731372 0.451521572224 0.324533442925 0.138847521542 0.195113539435 0.161010884485 0.243519443839 0.204781476566 0.761151392851 0.396948281739 0.274741583274 0.149555041172
0 0 0 0 0 0 0 1 0 0
0.121391370928 0.174404702239 0.227163650962 0.304648587225 0.712220369499 0.447560725086 0.2976276278 0.119508939778 0.102968552282 0.188882765218 0.232444667573 0.293516312654 0.645006645994 0.515559660027 0.348887758913 0.0999020731699 0.113097983229 0.169584764732 0.212976317703 0.282807168184 0.724841117488 0.454538181773 0.298110855684 0.110640683813
0 0 0 0 0 0 0 1 0 0
0.136480267001 0.217796563028 0.26786954806 0.344094858143 0.686167269815 0.430362661045 0.261732469114 0.138711932072 0.115234432006 0.225392980893 0.268295242157 0.319123928525 0.598211356182 0.52911060132 0.33391794518 0.113051147346 0.131177119229 0.194499581282 0.263850717981 0.318194302903 0.708219622854 0.434192844125 0.261413594188 0.125148444584
0 0 0 0 0 0 0 1 0 0
0.179903771461 0.226498645903 0.323027441164 0.236718151481 0.689310710393 0.411916903048 0.27122163071 0.193816464698 0.201652772267 0.21799315465 0.295257098748 0.249373960718 0.595895455826 0.507762153196 0.34816636692 0.168277745917 0.192525019497 0.217767595792 0.311044227503 0.216082314937 0.649565860262 0.467445618223 0.315843614288 0.178529861086
0 0 0 0 0 0 0 1 0 0
0.0999358691948 0.0828847377917 0.185321439592 0.334656872338 0.777693983708 0.405232317174 0.218871570524 0.140988497944 0.120209180868 0.0931850550925 0.218670278956 0.338604288521 0.748236037478 0.405252515882 0.252126518502 0.163530402365 0.0965024627892 0.0800269025486 0.190461330313 0.324096430042 0.785681892033 0.406108107684 0.2137005416 0.122805550191
0 0 0 0 0 0 0 1 0 0
0.17866250706 0.164901769988 0.22380499105 0.25555005776 0.736085895889 0.437800347752 0.266949216192 0.144010882025 0.1904512359 0.174990643611 0.227019864151 0.285089803993 0.681054602767 0.485067129059 0.28507669173 0.141060889415 0.184178592859 0.157584539662 0.223744634225 0.2351800771 0.741619496802 0.433896752372 0.276194016918 0.146030900996
0 0 0 0 0 0 0 1 0 0
0.118766887787 0.183507859924 0.230073292319 0.322403031391 0.713953226371 0.446477377064 0.27478612149 0.103745780563 0.136590846375 0.183006528938 0.229747168578 0.328044377314 0.625938470756 0.507476498923 0.360310596709 0.0911020519147 0.117014214945 0.175228092388 0.227268706051 0.319991128023 0.722642258056 0.4422834835 0.271747071584 0.0994204131727
0 0 0 0 0 0 0 1 0 0
0.172824368224 0.193084616222 0.247019177513 0.345203456273 0.679330568173 0.435205711802 0.284756672411 0.143825496777 0.169480597602 0.191063650434 0.233871049379 0.346846798066 0.586104942231 0.508285495725 0.374073230121 0.134047415074 0.172760131351 0.181069584238 0.248205791451 0.332899629239 0.684121775931 0.435324935531 0.296567502602 0.13948755222
0 0 0 0 0 0 0 1 0 0
0.117334968244 0.154275639079 0.229378159951 0.30234361722 0.709352468472 0.466388689908 0.290131825208 0.11631731891 0.106603611592 0.163864549919 0.222423195473 0.294530881549 0.625629162356 0.51962806741 0.393102460827 0.098024687027 0.109150117159 0.144849130772 0.228718830565 0.289299903452 0.723602152328 0.469817404908 0.274836440426 0.105993895355
0 0 0 0 0 0 0 1 0 0
0.136461904644 0.147398251522 0.211130755744 0.293234167776 0.722122135747 0.43880071588 0.311982190996 0.133229486847 0.124468025283 0.134539035153 0.187319499559 0.276665502199 0.631164717717 0.531549553571 0.401320745291 0.113147665848 0.130976946803 0.131107629714 0.197527218851 0.275022184632 0.730419456145 0.448699772362 0.318212886472 0.122057838179
0 0 0 0 0 0 0 1 0 0
0.0942609752174 0.192247478963 0.248436614704 0.320905799765 0.74612639831 0.41812678395 0.219448940679 0.098803057943 0.0834156712678 0.219081641801 0.322661962696 0.323673034105 0.640218383746 0.470645604798 0.311879571589 0.0866853705041 0.0946315251542 0.178026774501 0.224173444797 0.306854248861 0.774328787157 0.399050165098 0.21667176933 0.0957356678636
0 0 0 0 0 0 0 1 0 0
0.0902393173711 0.194180616981 0.265735413117 0.318098207195 0.740599060204 0.423700353137 0.214110772965 0.0921769714251 0.0851173845429 0.204965447385 0.251680082222 0.327611204981 0.670836707496 0.485181723769 0.295852255631 0.0843829392966 0.0843307651113 0.186078573759 0.266319394142 0.291415517577 0.745482850674 0.437512794911 0.220022332729 0.0827170454226
0 0 0 0 0 0 0 1 0 0
0.0959692851401 0.208999776527 0.228243230085 0.31374764744 0.749601951219 0.429456351436 0.205230440264 0.0901168946251 0.100381506412 0.22677548333 0.212155198318 0.326528849554 0.683740036686 0.49080727204 0.267848443654 0.0820396900555 0.0892033460886 0.202014160991 0.219249962226 0.30167056541 0.762544732693 0.430953755939 0.196993169489 0.0784566625243
0 0 0 0 0 0 0 1 0 0
0.112959707303 0.182616036931 0.219536048177 0.315674722319 0.749484854453 0.42151783867 0.237176567568 0.101918208613 0.142333521523 0.175641492417 0.199977843018 0.320826702089 0.684537991954 0.477223494189 0.315408620614 0.100763091105 0.108780286344 0.18217327744 0.212245997211 0.300804971985 0.765843288581 0.410700022941 0.233607998152 0.0984103829747
0 0 0 0 0 0 0 1 0 0
0.157125590469 0.187185708224 0.232953366643 0.19561659267 0.702674071462 0.46184184257 0.335328392052 0.168065666714 0.131568746309 0.173333820912 0.222407595977 0.252037316821 0.624165230269 0.526853224818 0.393505851683 0.132867201438 0.154459967002 0.176969527054 0.235177347131 0.16289312612 0.697289103908 0.479802368762 0.346266781526 0.163273569388
0 0 0 0 0 0 0 1 0 0
0.106090572523 0.0912953902346 0.261019270467 0.298077345535 0.77005067247 0.410653957687 0.220174750643 0.115486565066 0.125087460837 0.0983054252504 0.284964172045 0.334779444997 0.723456767618 0.412111705819 0.272487402954 0.118034642848 0.104471878265 0.0890351776417 0.260589220776 0.287329297813 0.77761324973 0.411708615135 0.2080580442 0.114973895903
0 0 0 0 0 0 0 1 0 0
0.0686328899223 0.153650475902 0.172179949769 0.339261657203 0.816773582426 0.343621533407 0.183993807871 0.0888148975122 0.0715301966986 0.170855212634 0.183914977704 0.351739758543 0.733759791466 0.436822382216 0.264774262931 0.0939346316594 0.0643077344209 0.14413202202 0.167047773067 0.31940596213 0.824553553121 0.349068040647 0.191443363689 0.0823269574667
0 0 0 0 0 0 0 1 0 0
0.0770742212744 0.0863539575158 0.200978739395 0.268711565051 0.78177924123 0.456279389944 0.215098736733 0.0914716858084 0.0951724026409 0.104002223005 0.245152319604 0.278003616134 0.742034712321 0.455624384582 0.274848414193 0.0948121094396 0.0729730516296 0.0828546277124 0.207200854627 0.260980138587 0.791719957336 0.44915253072 0.202241699344 0.0854811432883
0 0 0 0 0 0 0 1 0 0
0.0909557980026 0.165197726781 0.201536913417 0.311524956052 0.600836640748 0.585201085667 0.337781905445 0.0959699587698 0.0846308554187 0.179302796156 0.207429069335 0.33745566251 0.585469790622 0.561758672129 0.372860446024 0.0800773937172 0.082551774027 0.157807057524 0.196907085253 0.296374938223 0.605674153394 0.590099581679 0.344669198415 0.0884085982644
0 0 0 0 0 0 0 1 0 0
0.0670656855517 0.09875255042 0.276635051456 0.252099534072 0.728710680418 0.515013300925 0.199859812817 0.0972990245086 0.0949384762972 0.108390086871 0.296320504842 0.264839605043 0.709326081172 0.504477746141 0.23160446776 0.100052493865 0.0637141944555 0.0992175859443 0.287743211707 0.250495181816 0.741890034235 0.494133934711 0.193183810297 0.0930764587678
0 0 0 0 0 0 0 1 0 0
0.0788253593507 0.187982793047 0.229867679409 0.332226544718 0.595421471959 0.565992703902 0.333700360243 0.094894702813 0.0656035632349 0.174420047911 0.20685751944 0.373353010159 0.573511301288 0.537056765396 0.399206842 0.0798750973218 0.0737162390029 0.18312392784 0.231547920713 0.326811540246 0.616462491076 0.550120756639 0.332428838646 0.0862759420921
0 0 0 0 0 0 0 1 0 0
0.106722140513 0.166936388837 0.217603047204 0.30944734815 0.600502406443 0.580352891439 0.330534049898 0.104730618681 0.119400378617 0.173609702427 0.245879167555 0.329356802741 0.594914773777 0.560023232276 0.33157529689 0.0958069204414 0.0957552362118 0.152892701336 0.198420282509 0.303891343055 0.6116409557 0.58561517355 0.330408177698 0.0975440702949
0 0 0 0 0 0 0 1 0 0
0.0772606025667 0.172066020491 0.223432166657 0.321091259368 0.574222782141 0.590446451764 0.351900377901 0.0959680261705 0.066061491464 0.170725909893 0.225512835669 0.343254890614 0.555334156294 0.574426869195 0.390556244488 0.0831393453578 0.0707500638568 0.169124176532 0.22066740174 0.320503964059 0.574970202 0.599864344818 0.341433243399 0.0892744260058
0 0 0 0 0 0 0 1 0 0
0.100875421533 0.139550556706 0.19796334707 0.311694916984 0.51264558484 0.659717788524 0.352877267816 0.107010098147 0.107812456057 0.142041230965 0.191605502207 0.347947739125 0.505570733131 0.635413469521 0.376890973451 0.0949821881724 0.0967798902361 0.135511691831 0.2068231899 0.309457502751 0.519224441875 0.65344617618 0.355995201166 0.102038947839
0 0 0 0 0 0 0 1 0 0
0.0735112787218 0.128914810691 0.175933221294 0.307625924952 0.613502806184 0.593800343097 0.338285632523 0.0947055732169 0.0624803278188 0.143369209693 0.172013445566 0.322705795172 0.62284181758 0.563623821731 0.360457374236 0.0792499959887 0.0648515175811 0.123236536765 0.169963205473 0.289406892216 0.60710471492 0.614845859636 0.337408207242 0.0866448607375
0 0 0 0 0 0 0 1 0 0
0.0936971544205 0.121788059899 0.161249093785 0.310216016777 0.612345257735 0.586686465285 0.351987558041 0.105310494131 0.0827431487509 0.126915531279 0.157685536195 0.303481522551 0.608168119055 0.592590619885 0.362353585842 0.0880229027997 0.0870368826167 0.110627371302 0.158409380231 0.311484605377 0.627965285586 0.581573162137 0.340371684674 0.0982310954004
0 0 0 0 0 0 0 1 0 0
0.0837203800618 0.127890856533 0.149508536799 0.302592516899 0.661126969752 0.544897559062 0.34527780923 0.0974720850654 0.0677878396582 0.124904088332 0.151998374158 0.289613267659 0.62276153292 0.578896130632 0.37907118368 0.0785926696305 0.0733647574578 0.114349187765 0.142099062453 0.297596880968 0.680676512009 0.53624580328 0.337530428447 0.0893250404141
0 0 0 0 0 0 0 1 0 0
0.122509748876 0.150159760419 0.321492325646 0.553278820392 0.578491173487 0.376653053963 0.247387508816 0.123484812255 0.0874914276522 0.112423409869 0.365513202664 0.617919673567 0.554285381544 0.319661154193 0.217758927053 0.0862966667535 0.139758524771 0.163862447555 0.319929819164 0.435473852697 0.577443746531 0.463115965983 0.3071038786 0.139260966732
0 0 0 0 0 0 0 1 0 0
0.118661253339 0.17414974672 0.280273512487 0.35897657963 0.549546390718 0.549465503702 0.357116178249 0.129338339529 0.0835257082147 0.134248258753 0.287337685683 0.359273234342 0.545990479741 0.525764725734 0.423903051079 0.0955652188452 0.109457989841 0.155896254119 0.29607572438 0.289514348595 0.566770623048 0.559242843078 0.379237347702 0.120139299259
0 0 0 0 0 0 0 1 0 0
0.110197506793 0.163535112821 0.251520597697 0.368403276135 0.607919318297 0.516195887985 0.338140294817 0.108472301207 0.0824104697179 0.140237711371 0.244154789838 0.378565132066 0.585434320423 0.516348419648 0.392996458602 0.0826046469533 0.101855601044 0.153005793708 0.257530100456 0.305700238417 0.630793071619 0.525823980586 0.349244619824 0.100387812907
0 0 0 0 0 0 0 1 0 0
0.0704965898795 0.095042331598 0.239176146633 0.260886169122 0.759759312296 0.475790998478 0.214569421705 0.105257019145 0.0926822012398 0.105034045109 0.258604028234 0.275331032088 0.736767892419 0.470475795049 0.24618857206 0.113628448253 0.0643137665724 0.0943895910078 0.243972481972 0.250505197147 0.768417408544 0.474970014414 0.197736783156 0.0975564196938
0 0 0 0 0 0 0 1 0 0
0.119440998755 0.197722225507 0.356873343917 0.472224252121 0.570697065139 0.417396329416 0.294020560004 0.0996118255762 0.106376921016 0.191326845572 0.371669077357 0.494744586504 0.516556942385 0.426089609829 0.339402295357 0.0747698567371 0.123720776633 0.189040521336 0.360802001026 0.422857532523 0.567405408635 0.442726656387 0.333410994556 0.104170977973
0 0 0 0 0 0 0 1 0 0
0.110037881304 0.180907435951 0.33439025497 0.359642625016 0.58738913444 0.498937956563 0.326176446433 0.116826152822 0.0867466910776 0.160293444672 0.332830175942 0.357342463863 0.590601055982 0.492458680488 0.358529702104 0.0918844604874 0.100533076671 0.17271491517 0.337193485236 0.344809000307 0.598935427133 0.497988463774 0.330157411529 0.108396923755
0 0 0 0 0 0 0 1 0 0
0.0945398362003 0.162203010738 0.386882471832 0.358768069172 0.515312835349 0.538240513829 0.344681397818 0.110925169407 0.0804226969686 0.167343685538 0.368036570651 0.364347328506 0.527749015265 0.534917013707 0.352178004789 0.0929720703987 0.0856842881651 0.156252094618 0.394227668492 0.335905665733 0.51167110333 0.553568467306 0.347897105553 0.103526097109
0 0 0 0 0 0 0 1 0 0
0.144808865377 0.152462610905 0.284290723868 0.362909997925 0.586705517144 0.562091071528 0.253798201687 0.136665280136 0.142978229642 0.126788598743 0.291766268088 0.392916866957 0.604766795919 0.525613807287 0.264066408658 0.110575031112 0.134981707898 0.135513281431 0.304667573607 0.347269395341 0.574972715246 0.58719890651 0.243878343131 0.122983333863
0 0 0 0 0 0 0 1 0 0
0.154259248745 0.162708372456 0.231556182498 0.367244090017 0.590769422256 0.546934364586 0.28819040777 0.173332518113 0.11666256295 0.135269802597 0.278298482415 0.379521415489 0.641540004632 0.488437783292 0.280434054348 0.133480606283 0.141942183402 0.153058757592 0.221250705746 0.342915434376 0.603382943513 0.564732261956 0.28409022929 0.161807913204
0 0 0 0 0 0 0 1 0 0
0.184828147561 0.205098074191 0.242999238779 0.361980109889 0.554484442682 0.495233887916 0.222729312148 0.362459871466 0.158068052386 0.170926043955 0.213362257269 0.436103627794 0.591931021811 0.456856539048 0.197222442018 0.334801475239 0.182364975372 0.202817122143 0.250214160691 0.31903725776 0.535570303729 0.54879927168 0.227733031105 0.348335769602
0 0 0 0 0 0 0 1 0 0
0.197278036844 0.192207531414 0.231356550082 0.379462476129 0.531105964103 0.540657381308 0.232535737391 0.313310068078 0.166288175381 0.160451115083 0.198629083279 0.475181614643 0.540546839774 0.518509795376 0.208707745499 0.27703859994 0.185044289319 0.176427030748 0.215658234243 0.316041737599 0.572216205124 0.570628815387 0.220042453516 0.294574181158
0 0 0 0 0 0 0 1 0 0
0.11768025883 0.0839432743741 0.223727074745 0.259037995596 0.771479750708 0.480598056464 0.157553314158 0.104746607589 0.168497583769 0.0935559469622 0.232140080717 0.29102981119 0.734669772809 0.491218450913 0.173637286165 0.114382394765 0.122422391944 0.0839352247412 0.233252599784 0.252991397026 0.781056534566 0.464928885724 0.150991336646 0.102711494062
0 0 0 0 0 0 0 1 0 0
0.197194988583 0.189977698564 0.239218241758 0.315931050185 0.561202502927 0.5141737099 0.243641742092 0.35958401401 0.175310554827 0.165988172871 0.227251032712 0.303721892391 0.577794525338 0.529125692885 0.23531285804 0.358652286353 0.182535385387 0.175263059276 0.224423983786 0.298165370552 0.581567919099 0.540551999833 0.231914479681 0.335399680241
0 0 0 0 0 0 0 1 0 0
0.184168798527 0.177177812106 0.236164260032 0.360035800679 0.535575100342 0.494503055119 0.250692403688 0.393789156992 0.150662293161 0.142576940877 0.200865030622 0.329432263077 0.617885791225 0.489913415287 0.245867619778 0.354755438205 0.165606072093 0.158987232343 0.218489250905 0.325133617885 0.572327020764 0.50600354491 0.245504923351 0.38726966451
0 0 0 0 0 0 0 1 0 0
0.178133390643 0.175492747421 0.226875263438 0.412160396138 0.462662697747 0.556735612509 0.235457353907 0.369690050994 0.160758400039 0.156610823131 0.210949948036 0.417219143114 0.481129259115 0.565602850258 0.25494759264 0.338626445731 0.160833885395 0.153841107769 0.206986217726 0.35474360896 0.490613278231 0.602567648021 0.234537761572 0.350687797937
0 0 0 0 0 0 0 1 0 0
0.197647575835 0.198304212299 0.237439745587 0.401992843608 0.459382870611 0.524389880603 0.297193663863 0.359574127997 0.178748533527 0.178854571701 0.213315485104 0.398896154712 0.476781185776 0.55342248681 0.295488790419 0.332457504403 0.188757682427 0.181788167999 0.216801680959 0.387471814037 0.48463016398 0.539805486536 0.294296043766 0.348309780584
0 0 0 0 0 0 0 1 0 0
0.185889193013 0.1826023507 0.208166679798 0.369100218215 0.466366403688 0.579579861122 0.282424969083 0.345483647525 0.148531528318 0.141828861065 0.167119761116 0.370825394094 0.567472125558 0.529446594895 0.319869795086 0.296188243968 0.170782203313 0.164448558687 0.186842516473 0.328218512593 0.493044073937 0.601997841613 0.285843414023 0.33756817847
0 0 0 0 0 0 0 1 0 0
0.193646495123 0.165967203499 0.249547809578 0.415297920594 0.456871131151 0.513098084331 0.281460404627 0.385990435346 0.16833716695 0.136524267512 0.24237932569 0.444718511182 0.518013105122 0.481324609004 0.282909950886 0.341251277321 0.190521014763 0.151709894986 0.231688523955 0.383121196656 0.472317466572 0.534068730361 0.28519242479 0.388041892199
0 0 0 0 0 0 0 1 0 0
0.198222157071 0.175794735871 0.217364753953 0.425441383975 0.471995273436 0.509147769161 0.282834700689 0.373563813725 0.173586059793 0.155567524651 0.194482772922 0.40870599657 0.512854618357 0.519155082083 0.317209977138 0.328083001854 0.177379735375 0.165598055534 0.200724915799 0.372650169767 0.50406680848 0.54537541434 0.292069297772 0.353741300887
0 0 0 0 0 0 0 1 0 0
0.172545927488 0.155341059791 0.215408921579 0.415502527404 0.539417354869 0.530267945457 0.224856681298 0.323013932266 0.144593043323 0.129816822627 0.188490259937 0.421377929318 0.529238918933 0.568711326569 0.24530337293 0.292322349344 0.160554429932 0.141009762691 0.204279358567 0.383689380933 0.554454646635 0.563349975956 0.219689576969 0.303881989699
0 0 0 0 0 0 0 1 0 0
0.197650808341 0.13857953276 0.252056106387 0.398941079158 0.496739968271 0.527348780894 0.276039230912 0.343509266054 0.167591116364 0.108578053358 0.291518364379 0.355105264616 0.502415341189 0.543510358672 0.344124481432 0.287741158944 0.181914288175 0.122571712664 0.219097661491 0.375140210978 0.536925590353 0.533561104156 0.282500823792 0.332214007774
0 0 0 0 0 0 0 1 0 0
0.188688839992 0.162003447254 0.237752140814 0.388829285529 0.514271643519 0.505761734811 0.263912230546 0.374856225552 0.170456274307 0.145845038452 0.231546280694 0.399238816739 0.534151017842 0.507156231207 0.264236878112 0.352594228465 0.170411597052 0.142522492041 0.220035873105 0.363278506355 0.542266330535 0.529892995214 0.264095421632 0.354505877079
0 0 0 0 0 0 0 1 0 0
0.127856424304 0.07853703577 0.25040692387 0.246854057966 0.774548141164 0.471152092267 0.150505944441 0.096348113525 0.152152879317 0.0865674280061 0.278919168771 0.26573706941 0.739659878763 0.481355353585 0.177849502638 0.102534534141 0.128754781012 0.0776526757122 0.258143059198 0.243164370482 0.779989875002 0.461664584356 0.144437355476 0.0961507931679
0 0 0 0 0 0 0 1 0 0
0.190235173532 0.145005790437 0.226535150523 0.384837991355 0.479955578121 0.566531993831 0.273123356286 0.342714488644 0.163184713811 0.123876630709 0.210161671626 0.407762619788 0.515587978985 0.542731491141 0.290198536076 0.320910301072 0.181936044709 0.1334957979 0.22089232746 0.374676605436 0.485602969878 0.583083714387 0.265611018753 0.336980849554
0 0 0 0 0 0 0 1 0 0
0.178590615365 0.133812539945 0.241540764111 0.355268380906 0.526381492414 0.51855619768 0.297100356719 0.362485041605 0.156126715721 0.113383568736 0.225782999031 0.358319340216 0.562547451606 0.518078314591 0.313252995511 0.316868566127 0.16385937589 0.124642867346 0.233362433555 0.332129936554 0.548331785438 0.530848431149 0.288394653363 0.356660427494
0 0 0 0 0 0 0 1 0 0
0.146875957492 0.126447360876 0.245789122928 0.337435198659 0.610435535262 0.528155930708 0.221484745135 0.295851296455 0.12859503449 0.10684655903 0.226363798301 0.338964607343 0.598417928827 0.555312408106 0.243372911346 0.283201860164 0.13298466385 0.112608775311 0.22945022312 0.314743495678 0.626238661299 0.551231767255 0.212716401614 0.276846311679
0 0 0 0 0 0 0 1 0 0
0.166470419736 0.156072452888 0.226696267322 0.31914551712 0.600611273186 0.520516043405 0.24677154985 0.319557317787 0.146449069735 0.13168629929 0.204965659739 0.319212629223 0.611838684225 0.538082430942 0.259457808219 0.293438463698 0.15029412951 0.137360253243 0.213657686801 0.30400827438 0.634443940171 0.522889257366 0.238219615289 0.296297694297
0 0 0 0 0 0 0 1 0 0
0.158573891008 0.147383650851 0.221348408963 0.337162845711 0.579163161305 0.549686431135 0.24827776739 0.302045506681 0.139045916169 0.124020667281 0.199942531776 0.338525284049 0.568951017761 0.58078236178 0.277247749946 0.269868479289 0.148465027389 0.130516270346 0.210842497851 0.332052005286 0.590591663056 0.564776475458 0.243526962836 0.281307988462
0 0 0 0 0 0 0 1 0 0
0.137538342334 0.0904119615446 0.23516064014 0.232026735817 0.780247923541 0.461720715785 0.168547500894 0.115718828029 0.196987675898 0.100766185486 0.250755986289 0.24397256889 0.74693059265 0.466858869848 0.187338909462 0.132975451812 0.132565178542 0.0917990235074 0.233814733248 0.226211351329 0.789949856318 0.451964495085 0.163293723924 0.114895548998
0 0 0 0 0 0 0 1 0 0
0.154978929033 0.111503195948 0.246630474454 0.314472407874 0.605877321522 0.561535784364 0.212616743023 0.27606781293 0.154923302833 0.100776850852 0.262833625958 0.335032856255 0.616558059088 0.541178439368 0.207795408251 0.26137595856 0.148744451574 0.100908533065 0.243413517008 0.30785087618 0.618635787733 0.56311195375 0.205716733401 0.267480035016
0 0 0 0 0 0 0 1 0 0
0.153254103348 0.106469461249 0.252556799569 0.252442131329 0.559466345107 0.642199480585 0.221309704049 0.251524785405 0.174953001208 0.0980516161682 0.241502864586 0.298327405531 0.57333635407 0.601027081446 0.25962738014 0.234733784089 0.145508736871 0.0990908687311 0.247436632889 0.239233180493 0.559031099723 0.654908949599 0.222450284133 0.244223614034
0 0 0 0 0 0 0 1 0 0
0.164072279985 0.124362899551 0.236162379304 0.311168986791 0.591677246693 0.57866513333 0.237284113215 0.252539694398 0.164143948403 0.100636447252 0.233986732284 0.319326665147 0.578498856138 0.586734352227 0.26842620577 0.235029796301 0.148107620926 0.111853056049 0.233019628137 0.300167807195 0.598881797252 0.587160396578 0.242242280606 0.243014620961
0 0 0 0 0 0 0 1 0 0
0.107283974952 0.0861630479147 0.246173985471 0.243224375885 0.758932393551 0.504383239255 0.148104849227 0.0948181067007 0.165571762842 0.0936528386624 0.270104596406 0.250559437478 0.730579267612 0.504691764641 0.165563083712 0.110488163176 0.10221005423 0.0877929747785 0.251282134344 0.24472536132 0.760155504708 0.500908781264 0.145174515235 0.0948190198276
0 0 0 0 0 0 0 1 0 0
0.155601633799 0.105013221306 0.174328449735 0.275245180055 0.668378267373 0.535599940495 0.229533542546 0.26893788441 0.156271621545 0.0948786188356 0.164159484875 0.288215207968 0.654802247305 0.537311509241 0.274379543998 0.252600693201 0.14871447534 0.0991429835599 0.169647308808 0.267598669969 0.675173251022 0.538970810867 0.22319087525 0.267400066236
0 0 0 0 0 0 0 1 0 0
0.208471094726 0.101638202576 0.169032464675 0.304504500657 0.567588187083 0.586999921806 0.25365122378 0.306349982479 0.182941920636 0.0891856456611 0.172616607439 0.299089970977 0.595875886012 0.590362335982 0.2538150003 0.26703755677 0.198186322137 0.0932592839452 0.16247968414 0.29322473173 0.57279570849 0.602792594409 0.251063591384 0.291817981218
0 0 0 0 0 0 0 1 0 0
0.182250255649 0.116674229084 0.225186939709 0.277207748662 0.571377261771 0.602532971362 0.23363233707 0.285511206571 0.168565813314 0.10172914867 0.232683326656 0.322885300697 0.605494845153 0.560241881598 0.250093676841 0.244537274018 0.176898318977 0.110323682803 0.215935264734 0.265779781298 0.593119485915 0.606045340601 0.217059252098 0.270318961037
0 0 0 0 0 0 0 1 0 0
0.138716760446 0.118690335674 0.316135614513 0.287417369019 0.621054082013 0.539127798854 0.229217407291 0.234972802093 0.128915294156 0.102523187084 0.295228113837 0.29558203993 0.624346454544 0.536151431926 0.278401018389 0.208728247289 0.128465944813 0.108246736609 0.320548422759 0.278313526178 0.632008769356 0.544016466053 0.222129489441 0.216423023014
0 0 0 0 0 0 0 1 0 0
0.195613294621 0.104850269725 0.178631410445 0.309083157071 0.586260955993 0.564518998222 0.272739351921 0.294159683098 0.176828639539 0.0896373474492 0.178040978322 0.31024688266 0.578156096157 0.595648367359 0.278644914339 0.256983701178 0.19014488458 0.09421041128 0.167923640765 0.291481418877 0.606601643675 0.573997715249 0.258149553153 0.278799984906
0 0 0 0 0 0 0 1 0 0
0.21463896656 0.0981315437286 0.142548979311 0.310976415583 0.587212633691 0.581884716081 0.2438337804 0.290534609244 0.203489063387 0.0891128962457 0.150116947649 0.296435270668 0.602753609816 0.575924851357 0.274146002006 0.264735237858 0.204688234445 0.0909761370197 0.136221990042 0.294824691109 0.598756684539 0.589843154607 0.241957124086 0.281745054796
0 0 0 0 0 0 0 1 0 0
0.213624081208 0.0993811124399 0.167044848569 0.327625393776 0.528200040159 0.605771680507 0.280985747087 0.290410338905 0.197264491665 0.094443291069 0.168622163896 0.34681390175 0.52139826784 0.602445894714 0.316203094383 0.262053929248 0.205102764878 0.091836518619 0.162098514141 0.315147312218 0.544648111605 0.613896538928 0.269934930762 0.278441663862
0 0 0 0 0 0 0 1 0 0
0.227672451171 0.100771131244 0.16398743974 0.303016448137 0.472569735242 0.647044403175 0.253099585451 0.336528708062 0.224506904725 0.0943914251144 0.176199517788 0.311115058027 0.509675726275 0.634005848843 0.237435716454 0.307797949029 0.218774650516 0.0920936436815 0.158203226022 0.292547092769 0.479068069287 0.658727303065 0.241589074347 0.333543393303
0 0 0 0 0 0 0 1 0 0
0.224265014526 0.108116207176 0.160068992171 0.312234942235 0.508385856153 0.602509792059 0.307635630845 0.314307871312 0.199374695468 0.0977865121831 0.16647371696 0.290682803295 0.523081006992 0.629354036214 0.303351596111 0.277047116271 0.213555346926 0.0977996642819 0.153076034534 0.283892865478 0.530660978394 0.61445573075 0.303531038065 0.299188732971
0 0 0 0 0 0 0 1 0 0
0.235978502606 0.107084332989 0.200414714952 0.303110882614 0.546162845748 0.543870520577 0.326754579378 0.316144388587 0.211493746764 0.0953760178552 0.213859182982 0.311993302525 0.558661623099 0.544683769465 0.347727734601 0.270925163246 0.225555026445 0.0991498973439 0.197020956834 0.286259860812 0.571160956404 0.549860313404 0.310557780032 0.305802101764
0 0 0 0 0 0 0 1 0 0
0.102873611375 0.109178924661 0.222820071031 0.351302954828 0.679082240859 0.463780043361 0.312355519687 0.17499669488 0.103130329388 0.104295328209 0.235409917104 0.344317374617 0.66064050736 0.47224059844 0.342061953465 0.167484009243 0.0927823982256 0.100864090653 0.222632064194 0.33357685247 0.692626742556 0.467538757695 0.304477048286 0.171314745139
0 0 0 0 0 0 0 1 0 0
0.117425769624 0.0831647134501 0.256552400163 0.235114579986 0.767859755445 0.488970812581 0.1434229626 0.0944754652003 0.142673825717 0.0890693272623 0.280769963258 0.252123393565 0.744242168521 0.492363383284 0.147035426456 0.1066552076 0.115666228139 0.0825603465871 0.258742702295 0.239915462607 0.766774934017 0.490721191308 0.135205422269 0.0909192191097
0 0 0 0 0 0 0 1 0 0
0.279547679326 0.0981411796269 0.16462179091 0.327795489297 0.499065341335 0.583910398706 0.288302056852 0.323319566953 0.249753953006 0.0881427446668 0.177247892339 0.32262318535 0.544806451348 0.590778399227 0.262632077973 0.282032781165 0.266662030818 0.090652157491 0.156125405434 0.319889356461 0.51929985359 0.592411647126 0.274664316678 0.31289746023
0 0 0 0 0 0 0 1 0 0
0.231373753157 0.0995148901604 0.158844844373 0.293578727177 0.481892524578 0.631132189139 0.315272058453 0.308541898449 0.211826517325 0.0887619700164 0.160711597173 0.316269367106 0.523963080169 0.620153924294 0.301099732396 0.267594957266 0.22168600993 0.0900845601831 0.148657249729 0.277580190472 0.49516965722 0.651271586387 0.298141686063 0.292154430642
0 0 0 0 0 0 0 1 0 0
0.239909680711 0.110026341953 0.207395299976 0.253554108341 0.571788609789 0.586187835543 0.294661575414 0.256224932473 0.242251202773 0.0978625358737 0.208645802869 0.264089057545 0.568578528715 0.588445005132 0.313258704741 0.225346608541 0.221317417583 0.101953649887 0.203210895062 0.24509963851 0.596609917066 0.593127893504 0.274557557842 0.23691688314
0 0 0 0 0 0 0 1 0 0
0.208840937686 0.103857771936 0.194478769018 0.275453533412 0.613071677478 0.559052774428 0.276096615592 0.259376478933 0.219935283054 0.101258152686 0.213166892477 0.307960114076 0.603523353106 0.552160961319 0.280867429726 0.230406214852 0.195120829734 0.0945470273183 0.177327493733 0.255739345394 0.639539689679 0.571108687781 0.255771233093 0.235681982769
0 0 0 0 0 0 0 1 0 0
0.183624356206 0.105658123204 0.196429489944 0.286443902966 0.583358999037 0.549169922753 0.323156158312 0.296915096071 0.15431345716 0.0966582788288 0.212442245676 0.308405051309 0.608600864971 0.541517574861 0.320776626415 0.245082047224 0.169602047345 0.0967196228685 0.191497237561 0.273061580941 0.613446111973 0.555300102477 0.302305939351 0.273099659533
0 0 0 0 0 0 0 1 0 0
0.16387086922 0.120392424846 0.287631342574 0.247337234971 0.601778412492 0.566566996273 0.266075832124 0.246602388023 0.146084292663 0.113128262302 0.298745342175 0.262021034903 0.600582251969 0.57301402622 0.269670625514 0.214921407991 0.14933777536 0.111736853826 0.294154618806 0.238065658629 0.602019055531 0.586067149426 0.251701965461 0.229685394592
0 0 0 0 0 0 0 1 0 0
0.246519391387 0.10600454495 0.249234362658 0.243502756642 0.562723045391 0.560973397238 0.306369424734 0.285252981517 0.259685092928 0.0930814369188 0.239586295463 0.270127929971 0.579517477599 0.547790857541 0.298679288346 0.261541888334 0.240334249085 0.0992324620661 0.248729733349 0.229884933908 0.580261281449 0.572910728704 0.287752520719 0.264475770358
0 0 0 0 0 0 0 1 0 0
0.168239198584 0.114515231452 0.314088198992 0.263053557339 0.559192072318 0.567197506303 0.294950208372 0.263303727151 0.157150167587 0.10478377309 0.291375268754 0.286732635905 0.555812865856 0.567493999731 0.331552986782 0.237285206796 0.159695808606 0.110144262252 0.318971365085 0.246229542217 0.568066262719 0.574064406727 0.291234724643 0.250852315624
0 0 0 0 0 0 0 1 0 0
0.142400242861 0.0758285034421 0.225069772833 0.223808458567 0.760508368043 0.515236188739 0.132117324858 0.109221264191 0.175707952779 0.085401400612 0.252517136455 0.244307927118 0.730967001454 0.517678208708 0.145566745337 0.12202002423 0.139592867172 0.0730517813839 0.228217014045 0.222048986639 0.767208692918 0.507745416578 0.126482636079 0.10665864676
0 0 0 0 0 0 0 1 0 0
0.182976968572 0.103827602013 0.181314704008 0.227474512292 0.592149784386 0.595218580505 0.299910887341 0.276127717422 0.155964028716 0.0909795005214 0.206658644324 0.24321716709 0.570970929145 0.595263067465 0.359795436141 0.236086613991 0.166506010129 0.0968398339076 0.174011482153 0.20792081986 0.609559797136 0.605287451523 0.290673460123 0.258765581622
0 0 0 0 0 0 0 1 0 0
0.161078417556 0.109714607972 0.259840448484 0.25656726454 0.565127797114 0.599999795287 0.277842960176 0.268526975104 0.143308319504 0.0957499212057 0.267808543118 0.357441675713 0.553156709553 0.571895013363 0.289096811395 0.23277777569 0.151073079287 0.102890555255 0.26060295872 0.211168447843 0.575876009668 0.621782193982 0.262879298438 0.258326619002
0 0 0 0 0 0 0 1 0 0
0.141687503343 0.0970204641632 0.215272553448 0.187644565315 0.655600333184 0.592604220166 0.230752826954 0.233924132985 0.136133838703 0.0900385264834 0.232174795626 0.208482173567 0.626802349825 0.610391598104 0.261814218046 0.204902210178 0.130602972407 0.092190333464 0.216267978921 0.169819223044 0.667190572308 0.601005113242 0.216878723808 0.213182110019
0 0 0 0 0 0 0 1 0 0
0.196600272974 0.0979818757387 0.252741468991 0.176571063209 0.639110017541 0.611018202149 0.196430533908 0.190532101372 0.207086746093 0.0996332142233 0.256185929769 0.197872988896 0.632832230392 0.602353884773 0.217919262126 0.1777855808 0.190260449633 0.09359811285 0.24868329767 0.171064732766 0.646171387306 0.615301230497 0.19147600954 0.176458779854
0 0 0 0 0 0 0 1 0 0
0.13042849947 0.112989183249 0.318450707134 0.207024711893 0.596063127542 0.618094308539 0.217722779828 0.203019042621 0.11794088674 0.102541704787 0.3287567971 0.227142513585 0.598002548376 0.608329508441 0.23261882008 0.184707982333 0.121111772856 0.10570440549 0.314791955849 0.197481247259 0.608605518843 0.623142413477 0.201456406071 0.191765142981
0 0 0 0 0 0 0 1 0 0
0.156590279899 0.0970195082304 0.246467247647 0.188533308172 0.673829253226 0.564855909881 0.225238030099 0.214325815472 0.156301625612 0.0892486467381 0.263256526223 0.242824303729 0.662595077795 0.553485398282 0.238795881253 0.192184920515 0.148384365 0.0926187102559 0.246600261944 0.168917202483 0.689396646759 0.564991807887 0.216021947299 0.197256642453
0 0 0 0 0 0 0 1 0 0
0.0763809731467 0.0799602557574 0.250159732718 0.258878498052 0.760528722407 0.502935095036 0.142047042581 0.081543399989 0.0954588714633 0.0824542216375 0.282812049449 0.27495129512 0.731868813471 0.508009124234 0.163696593815 0.0894775386793 0.0731484819618 0.0779404037924 0.258654561263 0.256156208856 0.763990705313 0.498591957769 0.132999722149 0.078049621384
0 0 0 0 0 0 0 1 0 0
0.178538879422 0.10383543958 0.310101238366 0.205750602649 0.604746592626 0.593412277616 0.222143207003 0.227248332359 0.177181563739 0.096052594345 0.312450441908 0.249344189164 0.605428242228 0.58280368625 0.22528072286 0.206465231908 0.167266672172 0.0998582032866 0.301414543254 0.18312912825 0.625911887267 0.600905519777 0.204399873394 0.207438551272
0 0 0 0 0 0 0 1 0 0
0.270679553493 0.0763914150506 0.172307393403 0.16614612396 0.502101829387 0.701593742696 0.250197495615 0.238041477526 0.272638446189 0.0726075480243 0.188853390898 0.191716394818 0.501430969126 0.685369675244 0.276247649354 0.224718201349 0.274497517927 0.071418695741 0.171711992827 0.152076256952 0.514355583849 0.704671177717 0.233489038773 0.226490661115
0 0 0 0 0 0 0 1 0 0
0.22272554396 0.087965245609 0.218944125557 0.191150700292 0.633198511649 0.570332430692 0.263375791797 0.250188095115 0.202474848716 0.0833075704869 0.23259056303 0.239206749041 0.61068203997 0.581785464799 0.28248699112 0.222575300504 0.217811813132 0.0865666022603 0.220573658867 0.174197665898 0.653118977904 0.568278529228 0.249112731463 0.233462272297
0 0 0 0 0 0 0 1 0 0
0.224538135979 0.0895375491366 0.26278979529 0.186107311987 0.623224341514 0.577850886149 0.247381632757 0.233138040648 0.204919570087 0.0844492961576 0.276660723981 0.231524625867 0.610703489716 0.574418506158 0.266490986045 0.216329978009 0.214745413178 0.0836998790986 0.261053136432 0.160639895148 0.639419171772 0.590370244211 0.227120753013 0.20963559544
0 0 0 0 0 0 0 1 0 0
0.202634854046 0.0983574830345 0.286144093465 0.179731680888 0.568551864191 0.596598546576 0.296867824966 0.26032949999 0.188264253327 0.0934919951712 0.295732070024 0.239006987872 0.553929787856 0.593439703422 0.312352525633 0.233796981427 0.191307926616 0.093582513634 0.288475076565 0.155255887611 0.582562165721 0.604804540233 0.286741522937 0.244813030957
0 0 0 0 0 0 0 1 0 0
0.257570933138 0.100073613545 0.25492890347 0.190981001711 0.592893025076 0.553100823138 0.311220311089 0.260536476643 0.286039150772 0.088686161711 0.258182829241 0.231912710778 0.581388297621 0.526595459472 0.340491306944 0.242126061297 0.259361225035 0.0946012147159 0.252022033052 0.173942083107 0.612386058761 0.556356016005 0.29026989259 0.247398665416
0 0 0 0 0 0 0 1 0 0
0.190633754018 0.0990457141816 0.252537325381 0.174109887331 0.581113683304 0.618938227696 0.288022207234 0.236695860269 0.168868239002 0.090715335171 0.25183253794 0.195182001544 0.563972739705 0.623702104745 0.336243875134 0.203983074717 0.180131370895 0.0967496223306 0.250407360866 0.159162157145 0.592904518786 0.631289829512 0.269745635769 0.217555592658
0 0 0 0 0 0 0 1 0 0
0.161913657871 0.105267141073 0.265552356983 0.174010655298 0.597987151664 0.621890353311 0.253280883631 0.231122441229 0.151455478158 0.0934756196929 0.280776736768 0.211340752446 0.608812543603 0.601109472104 0.262578806405 0.209499682171 0.148319358243 0.0997408924767 0.263185035451 0.16392648235 0.613466781154 0.626489944317 0.237965576628 0.215536795625
0 0 0 0 0 0 0 1 0 0
0.188030905019 0.0849223289919 0.197815318629 0.22211682417 0.564784005149 0.602007317794 0.328575498335 0.282152709851 0.170008262244 0.0857106676873 0.217966223272 0.259197318462 0.561657219393 0.583164066251 0.367900248852 0.241181662777 0.184470587885 0.0761423643925 0.194167814016 0.198729338151 0.581163693702 0.609362206531 0.317711750879 0.270118785788
0 0 0 0 0 0 0 1 0 0
0.0869571000243 0.0994204306382 0.270862780148 0.266439468656 0.703540702441 0.537380307242 0.205085536323 0.111311332706 0.119262450205 0.107274189914 0.292874313675 0.289334255503 0.661619539716 0.527827688683 0.269921287065 0.124816087287 0.0821339277138 0.0998319819404 0.283262343265 0.256808737563 0.703497655509 0.541893855779 0.1934010961 0.10553399589
0 0 0 0 0 0 0 1 0 0
0.24588973682 0.0850533308859 0.251208736071 0.164990291063 0.586508317449 0.589193145642 0.290164073445 0.258148763665 0.25063092413 0.0780088370174 0.267414120702 0.196183700156 0.574391435598 0.5860553546 0.303124521944 0.236282731729 0.236958042331 0.0782705245719 0.246209019743 0.142301799598 0.604487886758 0.60412510333 0.265043526042 0.237139434045
0 0 0 0 0 0 0 1 0 0
0.205366229134 0.0980167349424 0.316949609228 0.168581499996 0.586916742627 0.589147499716 0.274246544957 0.229267197942 0.197431387629 0.0983751657227 0.327566803101 0.201603890986 0.571098429038 0.590076891342 0.293302052417 0.207433814254 0.188853342424 0.0974911456132 0.331889387581 0.16038778021 0.601917251918 0.595052829259 0.247391613428 0.203372141142
0 0 0 0 0 0 0 1 0 0
0.190286468334 0.111256931295 0.34019816746 0.19630647316 0.602091008987 0.546869912087 0.288281283735 0.229031762553 0.174958896765 0.105833876761 0.34636687867 0.210211578582 0.594425354431 0.534489915034 0.332275696775 0.211190773076 0.182588201273 0.105582792298 0.348719492828 0.183099954603 0.615773927939 0.549650010824 0.272549049813 0.211677337926
0 0 0 0 0 0 0 1 0 0
0.273563680106 0.0974115537717 0.222231483858 0.256452948024 0.587693837491 0.526948138182 0.304560629411 0.291038470318 0.272698680117 0.0926433978856 0.26120657735 0.24196703071 0.616478683819 0.513347633895 0.289155373679 0.251183438411 0.265459309693 0.0947504972133 0.224337593902 0.251341485608 0.600623401835 0.534108552791 0.287441425046 0.280019302764
0 0 0 0 0 0 0 1 0 0
0.0902762321069 0.104811612405 0.295217740835 0.265092981329 0.700786716246 0.533715633423 0.188837385868 0.10873346881 0.124572112652 0.106712278167 0.314403346645 0.295692067489 0.673997915389 0.520918497345 0.212930298293 0.125866725248 0.0845399550826 0.103446136427 0.302911507178 0.254209301923 0.70748610484 0.52981515514 0.184051601705 0.10323983359
0 0 0 0 0 0 0 1 0 0
0.292193766008 0.0769308198321 0.113007073853 0.246656454642 0.604121959713 0.544201929856 0.309921302752 0.279148974819 0.271914773836 0.0713877994285 0.112015325124 0.246175375311 0.609304871116 0.544463911814 0.345077485417 0.247071935304 0.279100932177 0.0712361885099 0.106328338797 0.236879319216 0.623214382579 0.552650233583 0.297947257685 0.258881308531
0 0 0 0 0 0 0 1 0 0
0.240287505676 0.0820162510892 0.150499005478 0.17713118774 0.511120493866 0.663847906431 0.317194725883 0.280996698563 0.225990683835 0.076441916937 0.173219768115 0.186181192165 0.507832405127 0.679427709237 0.305500271398 0.256066671342 0.225471323289 0.0757356672898 0.147098759694 0.167359469278 0.522405874285 0.685726553019 0.293363058532 0.254143398301
0 0 0 0 0 0 0 1 0 0
0.219865272988 0.0809235091766 0.178207914454 0.170111368435 0.531980829377 0.664336283733 0.317946747563 0.242854429561 0.195867712567 0.0802780516866 0.204389347917 0.20485096048 0.502018522327 0.657142892647 0.375100860676 0.216546342027 0.209562185979 0.078149074752 0.178946047977 0.158962608148 0.538195509654 0.68009050064 0.299977825053 0.22476970937
0 0 0 0 0 0 0 1 0 0
0.249399707599 0.0755721974182 0.120480183352 0.18952239302 0.563068242007 0.666860678885 0.257075307236 0.23198640693 0.236768792064 0.0740313611378 0.153267949265 0.233182936948 0.560875539021 0.653588236955 0.274311307474 0.208779556351 0.240852304907 0.0710843244997 0.114615163656 0.166306602465 0.569499825176 0.676091927376 0.254399817252 0.223591261261
0 0 0 0 0 0 0 1 0 0
0.165711376771 0.13045917925 0.356950206919 0.234956764759 0.607145298439 0.539158917505 0.265216348099 0.207953234145 0.159846910626 0.124732844342 0.352936765554 0.250440114874 0.592619941049 0.550550010232 0.27953201595 0.19789950695 0.155770838612 0.13129477234 0.360442281209 0.227550123491 0.616255820174 0.545610163628 0.255143667678 0.185039061018
0 0 0 0 0 0 0 1 0 0
0.137619439007 0.0864991043555 0.177211859934 0.200625450222 0.577468974712 0.710278491096 0.189852813604 0.167075246143 0.136353615132 0.0999122445328 0.216417549058 0.221659892276 0.570844904086 0.680422543444 0.244817713666 0.163343553826 0.131582257858 0.0820999491324 0.169876644964 0.192583631759 0.586076790436 0.712904772933 0.18633921039 0.153485038871
0 0 0 0 0 0 0 1 0 0
0.1448266747 0.106398738008 0.269928489409 0.192850489224 0.612137040088 0.633327936969 0.209243447189 0.195071757241 0.147371200196 0.106670568288 0.308752772127 0.241996131164 0.607076983155 0.601080435817 0.220643738332 0.185711885338 0.136833064907 0.102358171508 0.269720047662 0.191251670807 0.614122366331 0.642624811067 0.197384095773 0.180000004129
0 0 0 0 0 0 0 1 0 0
0.219746014051 0.0913820792521 0.255869821906 0.15629338719 0.544173846588 0.647396983997 0.286373417374 0.23707857744 0.233680986312 0.0888004857463 0.28420189749 0.175402781434 0.53623529741 0.633029551395 0.300236839959 0.218068679318 0.208989998187 0.0904759405907 0.261034607532 0.142625267459 0.544243150735 0.66707680619 0.264752079628 0.219932979428
0 0 0 0 0 0 0 1 0 0
0.0582928180773 0.202927880748 0.100700218365 0.324901228531 0.896720725535 0.131360185567 0.122973129322 0.0568764608968 0.0611304249547 0.221855975537 0.128528338737 0.370185525065 0.862732501561 0.161894536194 0.134931027682 0.0690112172481 0.0572046267894 0.197985279913 0.0951967566886 0.322983049975 0.901239249707 0.12959278665 0.110430235592 0.0541079851763
0 0 0 0 0 0 0 1 0 0
0.189952974106 0.0888050574115 0.253709287679 0.157779859284 0.57956984837 0.598129515453 0.326359720441 0.258065590955 0.197574717318 0.0825975683753 0.274385113338 0.180649795778 0.575923233394 0.589423029808 0.332708689316 0.237525120486 0.178050492924 0.0825797304744 0.26319190283 0.139515121699 0.595466515476 0.607255749846 0.305859015073 0.236335586214
0 0 0 0 0 0 0 1 0 0
0.200779998355 0.0911205393231 0.255522280136 0.123082686274 0.635132895493 0.576717808863 0.284642375716 0.232217458899 0.207003585944 0.0968865888371 0.287670748718 0.130408113617 0.61379914489 0.570801506939 0.310691666872 0.221153128148 0.18818351106 0.0884969692886 0.264366721845 0.11351664421 0.641491915933 0.596080029477 0.259948409346 0.198954781769
0 0 0 0 0 0 0 1 0 0
0.265437166495 0.0858813764238 0.181767327661 0.180977492807 0.552199874039 0.583635301215 0.355267717187 0.290869848783 0.278121727657 0.0891647349085 0.222860356708 0.198773585863 0.532080323075 0.589720013037 0.352920810239 0.264741412222 0.258398287724 0.0806529516091 0.179096522381 0.158732215094 0.571648303607 0.596645249518 0.340241570091 0.266312378708
0 0 0 0 0 0 0 1 0 0
0.162778306783 0.103347201394 0.288579174535 0.177431371201 0.636891135197 0.584140103293 0.251860318994 0.194368589778 0.182132450803 0.105160275898 0.292139040415 0.221165619813 0.621396629453 0.559239706795 0.294797923121 0.189000000497 0.152614246184 0.100322562847 0.283382189106 0.167023510037 0.653968829882 0.585511915054 0.238191845482 0.176655508992
0 0 0 0 0 0 0 1 0 0
0.159308019483 0.100615591252 0.272697845115 0.140713863649 0.628995409432 0.598317518374 0.263080178304 0.217951126345 0.161345081084 0.095179632604 0.273796583942 0.151203562523 0.635841800011 0.581893497921 0.2853275402 0.206820871504 0.151019914433 0.093222532347 0.26920174352 0.135703314195 0.645943071816 0.603403493038 0.241596584935 0.194706033344
0 0 0 0 0 0 0 1 0 0
0.189011039845 0.0986929126044 0.301677351233 0.158982113319 0.558149369314 0.643794273783 0.256472018081 0.215569751441 0.206649067855 0.0978364158668 0.313056961058 0.213701440051 0.561451974139 0.618198782176 0.256410542968 0.202254325154 0.178937125177 0.0943630835861 0.300753276257 0.139452832886 0.572932393619 0.652092384051 0.237124503291 0.198679271323
0 0 0 0 0 0 0 1 0 0
0.197638343283 0.102962678721 0.200555001898 0.340184246063 0.532637418476 0.542452206195 0.356897162888 0.298425102085 0.185787934294 0.118784733593 0.232135298709 0.358340600848 0.526004461926 0.541808154366 0.360046377629 0.263074292293 0.186877886073 0.0939409174045 0.200531588878 0.294960138525 0.556101546785 0.555642598792 0.359327594603 0.28624012665
0 0 0 0 0 0 0 1 0 0
0.18791330147 0.0803000246124 0.161255942075 0.195128122818 0.557274674892 0.64619500553 0.311268006724 0.262966183284 0.175155668867 0.0769798758974 0.179703002669 0.202833144958 0.545657818061 0.633968669729 0.37230617224 0.227353297782 0.18226117421 0.0718185155135 0.151221917116 0.175823817013 0.571581342095 0.654119456767 0.303507397595 0.247278481902
0 0 0 0 0 0 0 1 0 0
0.115940922154 0.174152386107 0.206854622544 0.36165262382 0.746849374781 0.359427981886 0.270293995043 0.150385794773 0.122941453785 0.261012219357 0.210331051777 0.43660558671 0.685272519477 0.344789612275 0.259450173908 0.161560314359 0.106144463084 0.146037684109 0.200156222229 0.348754018179 0.771150209991 0.358838632646 0.250200843247 0.140271867008
0 0 0 0 0 0 0 1 0 0
0.0553672020009 0.191393425299 0.102057834203 0.361922371903 0.882592893293 0.14213289999 0.122973201871 0.0678604447318 0.0587242316731 0.205498424807 0.13162329968 0.404500299842 0.839424614826 0.190879766843 0.145936589382 0.1049305434 0.0544273232682 0.190705505436 0.0950185089447 0.3677303355 0.881906082365 0.144859696719 0.114015992245 0.068356738192
0 0 0 0 0 0 0 1 0 0
0.0867235465956 0.123765693583 0.183611793341 0.333303182811 0.775677024533 0.381347570785 0.269269378872 0.112915732749 0.0877485658698 0.144261077278 0.185072012553 0.345881361469 0.739356938156 0.412417268058 0.297647659229 0.110781544905 0.0795826574833 0.116671264695 0.182831162312 0.323758784938 0.784107210888 0.387738335775 0.256327018366 0.104588509621
0 0 0 0 0 0 0 1 0 0
0.0921088501226 0.0927621043788 0.160769310628 0.263639665077 0.767401842007 0.467042411372 0.260098339372 0.113459949759 0.0895841967206 0.0991139029571 0.166826067158 0.273441188499 0.73442511564 0.500993368044 0.278027362529 0.108978282539 0.0806339772192 0.0870887936929 0.15682130309 0.251942757283 0.778614798577 0.471857329969 0.241615050926 0.102846742481
0 0 0 0 0 0 0 1 0 0
0.0939863373568 0.114896043292 0.177925711287 0.282603048188 0.780571773937 0.401148629477 0.283290020046 0.126402821918 0.0866655322614 0.12785697894 0.171809280513 0.296998169852 0.745168098583 0.450754457654 0.295922514779 0.111310941482 0.0795869195132 0.111718443431 0.173730237999 0.268922435848 0.81229311102 0.381638593795 0.247868101306 0.108520640493
0 0 0 0 0 0 0 1 0 0
0.115979405767 0.211890102683 0.19927663708 0.357771078665 0.718161567119 0.385939808557 0.300547049412 0.137498864655 0.11838831692 0.211502692488 0.193872644606 0.350558002223 0.684718531171 0.433646116588 0.323568149886 0.138522681382 0.103588442562 0.210437004116 0.198989819384 0.3497887069 0.735855429652 0.38528233322 0.277085602158 0.127806469361
0 0 0 0 0 0 0 1 0 0
0.091758307771 0.12385425268 0.176580777392 0.286952609994 0.790614775249 0.396793638657 0.258430744949 0.11582141972 0.102106346738 0.15768840666 0.197701964958 0.312437127237 0.752874414014 0.41904548024 0.263584183367 0.126925235588 0.0860710062956 0.118140834171 0.173944879899 0.28324105916 0.807111878405 0.387998254846 0.23339708065 0.108193248673
0 0 0 0 0 0 0 1 0 0
0.159171844716 0.0892284128241 0.153511682598 0.308034108431 0.746130656397 0.393179118584 0.307872389513 0.205342595711 0.186219714272 0.0915301592019 0.15246558806 0.316712022713 0.707659398006 0.403323046443 0.313768555423 0.267376471195 0.153030234676 0.0820135651618 0.142745880864 0.30133394185 0.765839963822 0.388382802643 0.288698199983 0.194880191762
0 0 0 0 0 0 0 1 0 0
0.0841686160394 0.149433050936 0.177502895663 0.331682450956 0.785464634659 0.376487815352 0.242603657996 0.107287365705 0.0855851684817 0.165608125792 0.18104678257 0.328161223413 0.752079245819 0.433669503538 0.245529568989 0.103943263555 0.0747881080888 0.147747293508 0.178888409235 0.327723170277 0.799486358379 0.367811177983 0.221250212694 0.098786539336
0 0 0 0 0 0 0 1 0 0
0.0875037692094 0.155074558318 0.189222370693 0.343249944197 0.75241966299 0.412834165639 0.256833428448 0.110175017283 0.0887445860255 0.18130064209 0.181664488092 0.373984488033 0.711968856719 0.435198140007 0.277571241862 0.114215689792 0.0772307231057 0.151621550503 0.186109436515 0.33705711346 0.766819974943 0.412434684282 0.235205938583 0.0967730562817
0 0 0 0 0 0 0 1 0 0
0.0843702823188 0.194481064304 0.138388733751 0.408773773849 0.855536133461 0.11650320939 0.114209743069 0.101254098214 0.121403747591 0.199866178485 0.162626944566 0.440026901727 0.817550107661 0.129988127607 0.123670209433 0.157047861719 0.0816965519055 0.183122988299 0.126855742192 0.407683095823 0.862706282944 0.112054693991 0.103796348826 0.0995072435026
0 0 0 0 0 0 0 1 0 0
0.11058385637 0.11054333462 0.176391178739 0.31935191354 0.745478638929 0.426086203638 0.292161819138 0.140732038539 0.120154687631 0.115134750016 0.166310199545 0.348174087466 0.694963893549 0.461019050568 0.326184240911 0.146673192443 0.102050941025 0.10597690359 0.166263310336 0.31528128818 0.770114889859 0.408492792019 0.272577413165 0.130640619334
0 0 0 0 0 0 0 1 0 0
0.0727788194667 0.125100889678 0.1678240237 0.325734391991 0.793171112479 0.386947280148 0.239225946582 0.093314248527 0.0720640003548 0.14563954763 0.172408691404 0.350841173782 0.739695615603 0.431426869794 0.282649642799 0.0872470494113 0.0655931186156 0.120809524052 0.162930942925 0.314799695035 0.797045030529 0.400791682611 0.229398636456 0.0831791655526
0 0 0 0 0 0 0 1 0 0
0.0900868421468 0.101989986657 0.147754250333 0.289519962123 0.819098993964 0.360938829184 0.250409630161 0.10919841268 0.0917397500132 0.118433732204 0.148304175334 0.283824937 0.794724971676 0.394232847099 0.275893570927 0.109004427634 0.0800298196131 0.0984743652968 0.14647008814 0.27872989529 0.834815212513 0.34723187385 0.238338113756 0.102287420414
0 0 0 0 0 0 0 1 0 0
0.140887385057 0.0926656213377 0.168865274576 0.297314082 0.787194453263 0.359328767049 0.282701426327 0.16105997801 0.143691452417 0.102311582004 0.178927998854 0.285462051645 0.730277152357 0.422835121005 0.335728013617 0.174853473085 0.139601417603 0.0875216832891 0.164059828601 0.293110983886 0.79607903362 0.356889161016 0.272097114384 0.157712340184
0 0 0 0 0 0 0 1 0 0
0.058972982387 0.217799006117 0.114028940114 0.416541376386 0.843528151866 0.131189238626 0.141945512693 0.11695116486 0.0561817877724 0.224792365276 0.141007594959 0.456195853798 0.79990019697 0.158177040409 0.145762513811 0.179463613917 0.0549195299607 0.20859770099 0.103510043458 0.413928812837 0.851429035964 0.127415536729 0.127935221365 0.117838491288
0 0 0 0 0 0 0 1 0 0
0.153626485629 0.0784317834883 0.156290333821 0.287830483171 0.804583312904 0.366430864646 0.225685265214 0.17439775761 0.16029292036 0.0808373102381 0.152966893182 0.285967772138 0.76927040468 0.41141548388 0.247283375994 0.201013302815 0.14866852063 0.0722273729149 0.149261721937 0.285104821209 0.815754073023 0.368643929389 0.211650135245 0.151552706295
0 0 0 0 0 0 0 1 0 0
0.141548370731 0.0948323813037 0.163631640137 0.284245789625 0.807098612103 0.360226599485 0.255124600213 0.130919675211 0.134369970513 0.113876458156 0.16633721389 0.299026026889 0.758554629068 0.423763676531 0.286705880881 0.121289689838 0.138532750033 0.0909297539784 0.158611533139 0.280712241215 0.81482957862 0.356794549091 0.247869864091 0.126073051112
0 0 0 0 0 0 0 1 0 0
0.100684474058 0.147128295913 0.17654552609 0.302854177724 0.777070042982 0.400714934845 0.259908393268 0.115603814291 0.095732711321 0.197423240463 0.194240493431 0.304483629074 0.734820357924 0.440957659499 0.275166280841 0.106294705628 0.0925508224424 0.143721837407 0.173900906243 0.292553225251 0.785184363908 0.404535441473 0.250770694586 0.109087643314
0 0 0 0 0 0 0 1 0 0
0.124942787717 0.156769794751 0.187227452069 0.327523554783 0.722228236538 0.431469646856 0.301588901072 0.136934971593 0.150031494519 0.182551690286 0.189699417886 0.326891850003 0.650779926047 0.486418231588 0.339671873292 0.160708091298 0.116768102485 0.152464305495 0.183296194538 0.320356839133 0.732103819491 0.42901775167 0.299450115966 0.131115371967
0 0 0 0 0 0 0 1 0 0
0.133557744581 0.117708518673 0.163735311082 0.319145776232 0.794422436973 0.329631880241 0.279322594974 0.147846061876 0.139133769565 0.153019832623 0.169985478678 0.321201232181 0.755537817648 0.387385629055 0.285938327467 0.149985612197 0.125444731711 0.112848996829 0.158447509932 0.316382402746 0.80644436691 0.324852790351 0.266219156265 0.139895652352
0 0 0 0 0 0 0 1 0 0
0.128341713126 0.109289120129 0.159697111148 0.309149863248 0.754396515165 0.390003706393 0.324899368515 0.154048352421 0.11255191055 0.134335360305 0.152818642563 0.307382377843 0.704665607847 0.477395950774 0.330138682343 0.1341512296 0.11966688737 0.101508115976 0.15364889686 0.315472160264 0.766667999324 0.384983470054 0.307268599554 0.147780869448
0 0 0 0 0 0 0 1 0 0
0.129493346424 0.123485723349 0.16201202875 0.306970159737 0.795293018641 0.348170826378 0.274606512845 0.135578487217 0.126428168375 0.163849295808 0.168246054796 0.291002542995 0.742863483247 0.424019818515 0.309482178627 0.129467877861 0.122731328571 0.117947127805 0.157760204479 0.296880973299 0.804622042753 0.353509805143 0.262609990582 0.129031315719
0 0 0 0 0 0 0 1 0 0
0.160048600514 0.116467459854 0.14993347157 0.302234313745 0.782954023311 0.413680078378 0.206319935041 0.14240092874 0.204911582122 0.148034296922 0.148328556356 0.311271608722 0.70110971939 0.491618532741 0.244531146064 0.155456147088 0.15435200324 0.111698675021 0.143286486388 0.308225732667 0.789586585588 0.406228384865 0.203092452714 0.135829762851
0 0 0 0 0 0 0 1 0 0
0.109591153025 0.123878185196 0.15901192056 0.266370724808 0.849494569125 0.329838117723 0.187311234284 0.104336547443 0.107482534865 0.151937343936 0.175719098661 0.285226114911 0.797217494563 0.377249584516 0.255301188093 0.100397861826 0.105174742182 0.120600371035 0.155864843414 0.261266433079 0.859236398628 0.320556116171 0.175724309437 0.0995860450972
0 0 0 0 0 0 0 1 0 0
0.139716527473 0.164355915083 0.20623487422 0.334151694963 0.690062849115 0.411309777269 0.335911651221 0.202674962698 0.14935854143 0.211307933481 0.195929790505 0.332615904275 0.606950620005 0.473944487391 0.362805295537 0.243678160785 0.13265090711 0.164621529908 0.204004198176 0.326179414355 0.707504447012 0.406822469078 0.326278241627 0.186462357229
0 0 0 0 0 0 0 1 0 0
0.0819982620023 0.25161371453 0.158536322276 0.440466854542 0.802935362302 0.159234720172 0.152822157677 0.13193371153 0.0953730351599 0.256189719658 0.172438701079 0.461304792316 0.757447533334 0.21688322403 0.154036157814 0.195553977531 0.0786789664163 0.241908748451 0.144603818819 0.453524093064 0.803699827287 0.157834543969 0.142582987601 0.132364444834
0 0 0 0 0 0 0 1 0 0
0.125193463004 0.0895992431301 0.145012151351 0.295222647187 0.81646498061 0.370779140286 0.218655364883 0.127323340258 0.126289355169 0.0884337710803 0.146041716758 0.301426223135 0.770656526266 0.423717763559 0.271517691521 0.129901633689 0.119598579641 0.0832150669463 0.138539727743 0.30212434512 0.822441158911 0.36920033748 0.204442759096 0.11740470813
0 0 0 0 0 0 0 1 0 0
0.0684233431245 0.159801851982 0.175645706341 0.300812155772 0.827086043681 0.358918570477 0.172734858679 0.0755715006723 0.0738499774918 0.180119613318 0.176326868064 0.308491044483 0.76632636633 0.435510887606 0.229964412654 0.0776901071745 0.0636070976212 0.146579506813 0.169146956517 0.2975374474 0.836324417456 0.355916564395 0.162089182671 0.0702945561725
0 0 0 0 0 0 0 1 0 0
0.100621341522 0.0981532708812 0.145464286555 0.313634823009 0.863065318038 0.27167762211 0.172840885513 0.110227831864 0.0991034073113 0.121260782244 0.141346933964 0.325536941946 0.827944323965 0.33207459699 0.20289089423 0.112209734532 0.0961655794593 0.0909643973345 0.131425541396 0.296422349235 0.878571976236 0.260104138121 0.163420692043 0.105307051073
0 0 0 0 0 0 0 1 0 0
0.113040794012 0.137920201994 0.160592565721 0.302886728151 0.785547243015 0.395101049996 0.257782769163 0.105015178533 0.145971819164 0.173265489532 0.163005576798 0.311693653282 0.737749475578 0.43516870468 0.283317305158 0.105036950321 0.107335574728 0.134682978614 0.157564037936 0.289978017974 0.796227426506 0.395737235797 0.246723739863 0.0998359373307
0 0 0 0 0 0 0 1 0 0
0.0820309747049 0.175321794905 0.176663093115 0.297662310536 0.814873959569 0.359997379955 0.202924300163 0.0890198443226 0.0938081244077 0.19877337324 0.18858244344 0.307666110913 0.758676646987 0.41653833504 0.251055849925 0.0966640009801 0.075345945425 0.173482101754 0.17450849912 0.28745410316 0.825160641681 0.356474089308 0.191747785494 0.08007994144
0 0 0 0 0 0 0 1 0 0
0.0742462825238 0.202614279162 0.192132085107 0.334745912242 0.828279956987 0.288991290712 0.171727576797 0.073561984989 0.0821730151813 0.218421174696 0.191377049418 0.340757277028 0.785939886361 0.343689988905 0.225334950727 0.0787333199054 0.0679614163372 0.200274543156 0.187869614911 0.322839631826 0.837415111739 0.288593234648 0.16393928066 0.0657626107398
0 0 0 0 0 0 0 1 0 0
0.0560441091523 0.166854891409 0.173894379416 0.305280035887 0.832045738836 0.358823631925 0.144458991341 0.0605015455737 0.0615114670976 0.179113783101 0.179516250183 0.321311664995 0.787474967855 0.408008863329 0.192759854969 0.070163400257 0.0513001543068 0.165857889076 0.172683655039 0.303261380285 0.834454000834 0.358706337056 0.140923283777 0.0568265575921
0 0 0 0 0 0 0 1 0 0
0.124338735239 0.0925821413128 0.164759433299 0.269966412063 0.752786876289 0.453079600649 0.277322059654 0.164511887466 0.127163072834 0.109097468032 0.159878660168 0.257503419148 0.717722309095 0.481371644796 0.302200648785 0.204667762517 0.119707478925 0.0890988916952 0.156255992268 0.261927489204 0.76813179749 0.45411897753 0.262646199125 0.139556555865
0 0 0 0 0 0 0 1 0 0
0.123692738984 0.114659379764 0.183238477663 0.301585633288 0.756163215615 0.403997537256 0.296815207633 0.154683589342 0.11919482781 0.171845151516 0.19284906593 0.302241537147 0.708487604945 0.421086357942 0.343328802305 0.174865817753 0.119446001743 0.112934847512 0.183536986956 0.292736595521 0.770459369066 0.400160434751 0.283163770023 0.140285777508
0 0 0 0 0 0 0 1 0 0
0.117248731273 0.111727813048 0.165485984737 0.288220243733 0.78927896313 0.372591199167 0.287052357185 0.13830607963 0.124221300351 0.146822242974 0.158148636283 0.287274436079 0.748423426219 0.416551027328 0.321986728581 0.134710311637 0.107595669717 0.106141385173 0.162045793967 0.281382672722 0.802016539467 0.367848443477 0.275758013383 0.130906995495
0 0 0 0 0 0 0 1 0 0
0.10753109841 0.147961987817 0.257803422765 0.389542830112 0.625649179308 0.420280351003 0.382913168744 0.183420631198 0.114916094611 0.148308441641 0.259453171517 0.406944701305 0.583265043923 0.407627118208 0.442629659861 0.172046402046 0.100976326608 0.144829587407 0.253624015837 0.375897930169 0.653006205888 0.417175111441 0.362478353094 0.177090490331
0 0 0 0 0 0 0 1 0 0
0.0790068119192 0.193335330586 0.0927446278877 0.363247397543 0.856975306587 0.187845952239 0.142177773214 0.161002604719 0.10854408802 0.210674289486 0.104598104069 0.372802952045 0.808501784409 0.243743994918 0.145729926285 0.244107022453 0.0775334528067 0.184803873942 0.0854679107135 0.358568502101 0.863803733728 0.187270455422 0.13122903425 0.159724087428
0 0 0 0 0 0 0 1 0 0
0.110237547674 0.0905056789339 0.134535468686 0.290727070997 0.84083852562 0.330810487001 0.208016295582 0.131600149369 0.121089214219 0.111155854263 0.139917234545 0.293337295093 0.77357268532 0.41222104539 0.268161250552 0.164641522753 0.103003072077 0.0835733007389 0.129415113595 0.29265242174 0.844951937934 0.329255854831 0.203030413408 0.12820926192
0 0 0 0 0 0 0 1 0 0
0.141213832215 0.127544662139 0.145735963669 0.288114587318 0.81768358741 0.32559346467 0.246182095656 0.155945018011 0.142120844889 0.183303544613 0.159690699255 0.292529236124 0.756312471753 0.390856647904 0.280053219466 0.1786609154 0.133553259812 0.123914553599 0.134676414138 0.278623956709 0.828479472566 0.324652863072 0.238598820741 0.149440788273
0 0 0 0 0 0 0 1 0 0
0.138778561381 0.106431400696 0.142623252479 0.283804745796 0.801987775863 0.352750408283 0.271679181562 0.164619321744 0.141800092963 0.118119209113 0.143214955131 0.268594906525 0.74816161055 0.445477724698 0.293721768841 0.169759131406 0.131006083994 0.0978226017784 0.134240255158 0.271603922193 0.819064923179 0.346388592393 0.258578630109 0.154154774859
0 0 0 0 0 0 0 1 0 0
0.132039387263 0.186346315713 0.287252417463 0.398435526082 0.70644346722 0.408359890557 0.185741785898 0.0790926508975 0.1341913624 0.201746079643 0.319768271453 0.404711961298 0.647189604134 0.46594375641 0.187437796195 0.0644731206114 0.118689037822 0.170348004512 0.269054606561 0.382891197687 0.73305098474 0.403687397813 0.180143316166 0.0715509842025
0 0 0 0 0 0 0 1 0 0
0.14886967534 0.182810617122 0.281496985801 0.410483766203 0.712647761109 0.383767876385 0.179898193075 0.0957739446319 0.159002396891 0.203793315158 0.308059966967 0.427901914918 0.670620727232 0.408551098413 0.172813813554 0.0931383727522 0.139951970201 0.167733077648 0.265827729217 0.400682558197 0.731119084077 0.385526158144 0.173404069205 0.0885079753659
0 0 0 0 0 0 0 1 0 0
0.111558309362 0.147675407464 0.218306096143 0.340516276933 0.823210221238 0.318639852818 0.139161546072 0.0597115659965 0.1165976127 0.161607636796 0.242366700182 0.338390629713 0.793224927538 0.360757476163 0.155974592917 0.0579509870216 0.104792545933 0.138733087012 0.20614152238 0.32945732117 0.837305045918 0.310821533362 0.134411744912 0.0545794510067
0 0 0 0 0 0 0 1 0 0
0.107622047451 0.144943210403 0.212921042922 0.340841233081 0.823655216656 0.321952154689 0.143686477365 0.0565149038985 0.106727177874 0.150262758521 0.21759600265 0.342252237335 0.792530175763 0.378370207096 0.166166938077 0.0516357836376 0.104251148105 0.142651148739 0.211549915308 0.333093479924 0.829200719152 0.320451504407 0.141815875356 0.0519901243148
0 0 0 0 0 0 0 1 0 0
0.0681831118928 0.203117021122 0.125648559692 0.353732305234 0.87741614109 0.113226935179 0.118017780419 0.128735444512 0.0913175811765 0.232154532531 0.14712250381 0.373525293015 0.8435612454 0.132088083891 0.130682902214 0.174580466166 0.0651827226383 0.198022901791 0.119729981831 0.34842190702 0.882758196507 0.112512008025 0.107665654184 0.131499698303
0 0 0 0 0 0 0 1 0 0
0.0968072016586 0.201774233642 0.209891342343 0.366936034883 0.773218686151 0.382871200911 0.14973929471 0.0658767453476 0.0917182980074 0.197915189461 0.215314483831 0.393097970939 0.730587060622 0.437822464584 0.15132085618 0.056453739735 0.0886370454701 0.196957246528 0.204976309916 0.36339680355 0.782700807645 0.377826090022 0.143588997086 0.0573400739414
0 0 0 0 0 0 0 1 0 0
0.0607751193805 0.196650921996 0.11493647577 0.392484699529 0.86453884107 0.12435917285 0.115549334116 0.118894519259 0.0663153320686 0.213432835531 0.120592048256 0.408957531488 0.826224614628 0.166783555127 0.123664581495 0.206163042254 0.0581703073064 0.19332039087 0.109464691763 0.388657719109 0.868826331429 0.124668121175 0.104330669369 0.122146949464
0 0 0 0 0 0 0 1 0 0
0.101878874889 0.15767450498 0.169663230575 0.335633731326 0.79540388717 0.396943163484 0.164604696569 0.0774461556383 0.0930199125711 0.16056812265 0.186484461969 0.378577756253 0.733589907596 0.464124228953 0.172287798567 0.0649543209217 0.0929609130701 0.149240114063 0.161148206564 0.334294265121 0.801402657413 0.399639174727 0.15785702522 0.066990500278
0 0 0 0 0 0 0 1 0 0
0.106187258852 0.206021851504 0.194831385661 0.336691308554 0.777908409414 0.395429037564 0.166146654439 0.0764763277048 0.0985592850123 0.19675457851 0.192791634533 0.341766629942 0.726090355138 0.486121433077 0.173114746296 0.0641146830265 0.0962093783577 0.202016773913 0.184854946148 0.319227186915 0.791019871077 0.397587118365 0.160845577755 0.064779453385
0 0 0 0 0 0 0 1 0 0
0.112865751888 0.157096221738 0.165942315708 0.317939024451 0.798229891175 0.395992794774 0.183322288566 0.0798229891175 0.109146298793 0.17226893411 0.1692054851 0.31403858647 0.751976017903 0.477168949804 0.183413766412 0.0660380341318 0.102628447213 0.151295386339 0.157698120898 0.308439424438 0.807021595857 0.396630936515 0.181431334095 0.0711072924602
0 0 0 0 0 0 0 1 0 0
0.0951499364247 0.208782796845 0.172637543788 0.323040872453 0.808950301382 0.366923163461 0.14387764514 0.0588483795711 0.0964583936593 0.216264828631 0.177684804287 0.350645501187 0.776820411279 0.400776808009 0.150079174699 0.0529658863518 0.0875847542719 0.202954080553 0.163404054599 0.303865474005 0.827088786466 0.356855268503 0.13417142672 0.0517679973583
0 0 0 0 0 0 0 1 0 0
0.0947533384877 0.183743638221 0.200845642837 0.346830150515 0.785906343436 0.386759776173 0.161589619111 0.0573310089112 0.10322158889 0.196733174648 0.217069469738 0.355606418788 0.733181128494 0.444765040092 0.197587650853 0.0515256631799 0.0879465164826 0.183353277736 0.195742612803 0.329338722289 0.797646706548 0.385268354962 0.156798358849 0.0510893548161
0 0 0 0 0 0 0 1 0 0
0.102164924313 0.139690375697 0.163171472786 0.341406290874 0.803983903514 0.390583682889 0.155418280351 0.0613609801272 0.101815871383 0.163879111 0.179240127646 0.367856377001 0.742398767343 0.46380454877 0.162542244936 0.0513931634877 0.094433540269 0.132998022683 0.156027420075 0.321448752533 0.820653226636 0.383042632339 0.150172488535 0.0545419400396
0 0 0 0 0 0 0 1 0 0
0.0932088600898 0.143684785221 0.163356165662 0.33629689754 0.818120156342 0.365929530204 0.154231993458 0.0622368993954 0.0898358152627 0.162138380062 0.187812983149 0.351551532913 0.769997469973 0.428969406432 0.162969921397 0.0575189044979 0.0849980430208 0.13421520748 0.152966947139 0.324218070874 0.830391998753 0.363739453934 0.14580584971 0.0559353074077
0 0 0 0 0 0 0 1 0 0
0.0910443503581 0.124024701763 0.148432695505 0.335884398306 0.804999281483 0.399353627707 0.17317851615 0.063089174135 0.0857278597376 0.155011337006 0.166314170306 0.341062824562 0.755464779247 0.467326275289 0.180541696927 0.0540535043749 0.0852197141845 0.11677512722 0.137879065874 0.330452506094 0.808657706503 0.406175447884 0.169610345065 0.0567293970014
0 0 0 0 0 0 0 1 0 0
0.0999896833907 0.119971978351 0.159662838203 0.322727750107 0.829519418759 0.354324020807 0.168070261718 0.0637791058312 0.098607743224 0.146432545709 0.186673646925 0.337681157836 0.776694571743 0.415247826753 0.202270839178 0.0579629186609 0.0950749793123 0.11566875383 0.149867885583 0.318193551032 0.837727815274 0.348793996144 0.164192980146 0.0589023742406
0 0 0 0 0 0 0 1 0 0
0.0887804242241 0.162325584444 0.192668798268 0.347313093618 0.798090180668 0.38512540623 0.138348079814 0.0600922947903 0.084773321085 0.169197835436 0.192239741793 0.335340058633 0.756340353541 0.469545774471 0.139770051412 0.0521236153553 0.0818592167118 0.160312927357 0.186921620278 0.349674313175 0.793686227231 0.398596695097 0.136067757304 0.0552759380156
0 0 0 0 0 0 0 1 0 0
0.0492127888403 0.162914634963 0.0993682588028 0.305259484413 0.910944191073 0.134996770959 0.110680432269 0.0876693443634 0.0536396790924 0.175449351889 0.118178493605 0.339337924764 0.87711602959 0.177219619394 0.131349802082 0.138678883919 0.0460641840027 0.160877426542 0.0929964116739 0.304379512322 0.913167471755 0.134604638179 0.104338848941 0.0884391824148
0 0 0 0 0 0 0 1 0 0
0.135728899046 0.169351369058 0.269768226734 0.3679323226 0.711140584336 0.425039834481 0.2221786335 0.0948975912415 0.121337682474 0.188920586272 0.283564588145 0.363352976305 0.652231833351 0.510664758469 0.213309818272 0.0739322616052 0.125486708839 0.152903972955 0.235366667335 0.361345480914 0.731865200206 0.427006313438 0.220884727827 0.09030121989
0 0 0 0 0 0 0 1 0 0
0.122331297226 0.152609677127 0.210564821107 0.382271465448 0.753195457625 0.404523583767 0.181504218825 0.0859640292269 0.108464648041 0.207442005169 0.219139859806 0.406452007766 0.696336935872 0.463344998679 0.166075282037 0.0694478687934 0.116027402808 0.15186973001 0.201834804251 0.372445620379 0.767146280524 0.396842498558 0.178475379053 0.0785452305715
0 0 0 0 0 0 0 1 0 0
0.131490476882 0.122937824156 0.173046924484 0.321695177081 0.759821865815 0.454549880779 0.200226520264 0.100637962753 0.122475248425 0.130262996053 0.16365711021 0.32508329421 0.710355574575 0.53190543837 0.194630107327 0.100793110427 0.122402914914 0.113956921831 0.162841306041 0.319955972832 0.773928101068 0.444022492444 0.193649985357 0.0975768140323
0 0 0 0 0 0 0 1 0 0
0.107008174913 0.151917714384 0.20162890273 0.34575906894 0.770846219282 0.417582052102 0.178790808084 0.0687160338901 0.103542413344 0.188199127787 0.205028936256 0.359524860206 0.720555936685 0.469052433641 0.199572368531 0.0593708131369 0.100129938806 0.151836972084 0.197575043245 0.329875050971 0.779369061635 0.420967645527 0.175137498902 0.061343670913
0 0 0 0 0 0 0 1 0 0
0.110780036066 0.11945118739 0.174557569632 0.328976998106 0.791465414952 0.41127189688 0.184890016302 0.0708279089406 0.106800078663 0.13946381154 0.195033207619 0.348725803568 0.735124238315 0.472884894894 0.203683050934 0.0630983003271 0.0996849602217 0.11353537295 0.164684495771 0.322384392328 0.803371452539 0.408171425541 0.173237066238 0.064025492802
0 0 0 0 0 0 0 1 0 0
0.164304788246 0.148547230056 0.217409441649 0.377396322491 0.69922061592 0.45523080921 0.234400687669 0.10076986501 0.176236227248 0.164948022522 0.200448210241 0.379079460223 0.633895620812 0.544997637331 0.225599512758 0.0900610736228 0.156556964251 0.139131902178 0.206347652217 0.367940761576 0.710398628907 0.460672980161 0.228573839293 0.0950824196353
0 0 0 0 0 0 0 1 0 0
0.118109357712 0.167249747417 0.223642021259 0.326588348505 0.762056384003 0.418530068356 0.195344459385 0.0857040852443 0.109661623146 0.19457982024 0.215410488283 0.317249387356 0.717047990179 0.50029960562 0.184468345629 0.0676615369436 0.108285703091 0.163695315545 0.219522213945 0.313471164163 0.787418580856 0.397882149892 0.175051454515 0.0777344105865
0 0 0 0 0 0 0 1 0 0
0.127401045631 0.168874374525 0.231005918946 0.364055286797 0.743591160419 0.409817156635 0.202659709286 0.0860323152967 0.117030954907 0.212048185321 0.24574668285 0.399678490011 0.684930806705 0.457312124205 0.194944899516 0.0702630231329 0.120706710559 0.158952609692 0.222969486275 0.341844436182 0.757812014614 0.415020116026 0.201430507573 0.0805974686933
0 0 0 0 0 0 0 1 0 0
0.127942713604 0.180171819698 0.244515102993 0.360662433532 0.694971218415 0.469052440074 0.226290704834 0.0842679168506 0.129708805654 0.187453552629 0.229714892324 0.379079914179 0.65715799513 0.519545257942 0.213510591392 0.0647734513798 0.124993003085 0.178753082685 0.247597396426 0.341080383288 0.700124420685 0.480306882798 0.219424889709 0.0759447016128
0 0 0 0 0 0 0 1 0 0
0.120302146457 0.168491082245 0.232969920645 0.351667390128 0.748703374695 0.416972880302 0.191831838227 0.0892783916309 0.120846318965 0.184149165908 0.227837732534 0.359761816508 0.712657763427 0.465985852643 0.19407802697 0.086350864014 0.116034335381 0.167676958571 0.237180056675 0.344372281942 0.756543866683 0.412318463647 0.184744287395 0.0841322370964
0 0 0 0 0 0 0 1 0 0
0.0663629468702 0.176582726964 0.100856273988 0.353911645931 0.880867624488 0.141367278552 0.127646973976 0.129548560049 0.0921061969919 0.187354136156 0.117533854237 0.387146749726 0.83368076129 0.166679420839 0.147957678655 0.2191368241 0.0630007723265 0.174296834892 0.0981233052577 0.353799150169 0.883196505326 0.139680390331 0.120550249917 0.129500784245
0 0 0 0 0 0 0 1 0 0
0.107200454483 0.158371069203 0.214351325036 0.368854847778 0.741825161663 0.430983510807 0.19843488383 0.077450097087 0.0906044751631 0.162206477631 0.204017401976 0.389269422996 0.697981508004 0.495258638149 0.18998374485 0.061424557154 0.0977228753134 0.151993493168 0.208797335909 0.360462999974 0.75621233248 0.426863294637 0.18665397014 0.0700660200859
0 0 0 0 0 0 0 1 0 0
0.109100582065 0.150892152482 0.218889495879 0.36447166059 0.732434146474 0.439548987681 0.21962699418 0.0817148118037 0.094530059514 0.163954928019 0.207263684402 0.393823210933 0.690016736547 0.471479568987 0.251972318576 0.0649750957591 0.0993340043964 0.146694308668 0.213646945964 0.361480004241 0.748421281801 0.429425397607 0.206318070272 0.0720624111847
0 0 0 0 0 0 0 1 0 0
0.0921414272907 0.147719523414 0.210262063569 0.344510886026 0.771449632667 0.413330589552 0.188039988862 0.0738597617069 0.0832721852938 0.168596435356 0.206965362648 0.380109547979 0.70301261665 0.490450896309 0.197539528613 0.0594337371929 0.0841899313045 0.145393886609 0.204473087829 0.332289463379 0.77674938587 0.422108613296 0.18319795278 0.0668607681255
0 0 0 0 0 0 0 1 0 0
0.0974302552451 0.114463516652 0.144198724421 0.320176647981 0.795599307066 0.412983589415 0.209363115916 0.0820516535181 0.0878719957034 0.162772559164 0.164492314373 0.304940024501 0.722510761436 0.518249915232 0.224901358794 0.0674690307332 0.088960523198 0.104480562879 0.133971507041 0.30469194353 0.810656712199 0.410807704674 0.19820324243 0.0719200360069
0 0 0 0 0 0 0 1 0 0
0.109284735883 0.103370415595 0.412291358926 0.346527093085 0.663556978697 0.455477056121 0.157417631809 0.121485346288 0.104493539904 0.100118040381 0.420705609104 0.469931817919 0.618602154934 0.404592618204 0.150239109846 0.110872684474 0.106843029457 0.111514552494 0.403966342613 0.246988720564 0.695093731872 0.475219108934 0.168271149391 0.121050238693
0 0 0 0 0 0 0 1 0 0
0.0789834894203 0.16657053751 0.187021619592 0.357012424277 0.799496267463 0.36808421699 0.159412658781 0.0590613146335 0.0755531866316 0.16959588406 0.186057855091 0.35486310983 0.758531666971 0.436437585843 0.18992342707 0.0553591515118 0.0713077321803 0.168845771744 0.18565252042 0.340257780457 0.808722235734 0.368381213473 0.153637662491 0.0531337261025
0 0 0 0 0 0 0 1 0 0
0.0844984080495 0.130075029164 0.172917772454 0.35472064784 0.790918049291 0.400585045568 0.172594023764 0.0663684814182 0.080909473782 0.155231099961 0.189844227286 0.381893179709 0.759257647204 0.416519384607 0.183856901016 0.0609081166367 0.0762887978134 0.1264437704 0.167049439023 0.344810154836 0.808141538067 0.38412708996 0.164936761155 0.0595141355415
0 0 0 0 0 0 0 1 0 0
0.08928302363 0.0996082712606 0.130941289157 0.326549354133 0.830307110508 0.374352749738 0.156200631977 0.0661673308374 0.0902469649635 0.129140051913 0.152564110242 0.356896794875 0.776822854642 0.422979583264 0.194602804978 0.0655093529444 0.0814741353784 0.0926173627316 0.123111232969 0.313831854975 0.841956543666 0.369505133175 0.149297817249 0.0585019436042
0 0 0 0 0 0 0 1 0 0
