5010 40 10
0.142848411391 0.127619188259 0.16786177229 0.367117864891 0.667788672428 0.466235434439 0.311220660434 0.200447205025 0.13097468323 0.0919573643937 0.146132490548 0.323085855974 0.716515165908 0.482691953026 0.265317768086 0.178525286186 0.142848411391 0.127619188259 0.16786177229 0.367117864891 0.667788672428 0.466235434439 0.311220660434 0.200447205025 0.13097468323 0.0919573643937 0.146132490548 0.323085855974 0.716515165908 0.482691953026 0.265317768086 0.178525286186 0.133296659533 0.103513113651 0.147412084122 0.337405699086 0.699983905356 0.479642127526 0.286166707829 0.18444154796
0 0 0 0 0 0 0 1 0 0
0.140554428189 0.123721562538 0.227617749975 0.402679552749 0.593919609733 0.469917499434 0.378552445315 0.184693942564 0.117181709238 0.103837172955 0.217444452831 0.326226253069 0.642980268331 0.518947569483 0.338021869963 0.157453613379 0.140554428189 0.123721562538 0.227617749975 0.402679552749 0.593919609733 0.469917499434 0.378552445315 0.184693942564 0.117181709238 0.103837172955 0.217444452831 0.326226253069 0.642980268331 0.518947569483 0.338021869963 0.157453613379 0.12419572603 0.106793147718 0.211461562038 0.355235188668 0.63615529728 0.500172359778 0.344915055018 0.168612771836
0 0 0 0 0 0 0 1 0 0
0.158796600181 0.139324576767 0.289831107574 0.245745932453 0.661406155023 0.494448013675 0.322220215826 0.158796600181 0.139700222738 0.130187810625 0.269504124354 0.243739564191 0.703150678356 0.481080644898 0.289808645277 0.14712246358 0.158796600181 0.139324576767 0.289831107574 0.245745932453 0.661406155023 0.494448013675 0.322220215826 0.158796600181 0.139700222738 0.130187810625 0.269504124354 0.243739564191 0.703150678356 0.481080644898 0.289808645277 0.14712246358 0.144704044072 0.134482517946 0.270674559426 0.241968810097 0.694066554486 0.480945954012 0.304651339649 0.15268182056
0 0 0 0 0 0 0 1 0 0
0.109880021786 0.22083309066 0.12215568047 0.284700853324 0.873803704502 0.215553698989 0.141084231098 0.115245257225 0.0933210244835 0.15407194905 0.105398520762 0.281165231645 0.903519733151 0.189270022694 0.110346939376 0.114205028465 0.109880021786 0.22083309066 0.12215568047 0.284700853324 0.873803704502 0.215553698989 0.141084231098 0.115245257225 0.0933210244835 0.15407194905 0.105398520762 0.281165231645 0.903519733151 0.189270022694 0.110346939376 0.114205028465 0.0946675144315 0.172876103585 0.107384731453 0.276679813638 0.900305508246 0.189059565678 0.119252603655 0.112044650325
0 0 0 0 0 0 0 1 0 0
0.107102049973 0.201087151567 0.120415949528 0.270768477937 0.861425057319 0.279158598071 0.163036184199 0.117107169757 0.089133773872 0.156094066116 0.101346006461 0.257233085583 0.89622780643 0.237439954375 0.139742093667 0.110091206916 0.107102049973 0.201087151567 0.120415949528 0.270768477937 0.861425057319 0.279158598071 0.163036184199 0.117107169757 0.089133773872 0.156094066116 0.101346006461 0.257233085583 0.89622780643 0.237439954375 0.139742093667 0.110091206916 0.0936245709785 0.175731748194 0.104948214192 0.258549344091 0.888217101403 0.243415273408 0.147917780454 0.11149267719
0 0 0 0 0 0 0 1 0 0
0.0832331620048 0.208513343248 0.138827658347 0.287985834351 0.875556680773 0.209917931175 0.161482302333 0.103169248713 0.0724707998801 0.156670626491 0.103373442848 0.260408702295 0.910913894678 0.190247244465 0.129383926998 0.0948957266355 0.0832331620048 0.208513343248 0.138827658347 0.287985834351 0.875556680773 0.209917931175 0.161482302333 0.103169248713 0.0724707998801 0.156670626491 0.103373442848 0.260408702295 0.910913894678 0.190247244465 0.129383926998 0.0948957266355 0.0751292205239 0.172431031172 0.110559908388 0.26617209557 0.902964843378 0.195386480401 0.137631681296 0.0953320361269
0 0 0 0 0 0 0 1 0 0
0.08464609039 0.218323489623 0.10630768355 0.357172350285 0.824604161252 0.229398223063 0.246376228513 0.114016088324 0.0697357453398 0.153609125778 0.0792005199954 0.308021864499 0.881355053778 0.238405172929 0.166199061877 0.0956299401523 0.08464609039 0.218323489623 0.10630768355 0.357172350285 0.824604161252 0.229398223063 0.246376228513 0.114016088324 0.0697357453398 0.153609125778 0.0792005199954 0.308021864499 0.881355053778 0.238405172929 0.166199061877 0.0956299401523 0.0721837898306 0.17572013484 0.0846544132217 0.322099105371 0.868216868836 0.228896280953 0.192238682356 0.0992369970259
0 0 0 0 0 0 0 1 0 0
0.0687557131707 0.173657984005 0.0846943527703 0.265467800882 0.907404642715 0.198053860943 0.128850890028 0.0908746415947 0.0594002576471 0.129800563007 0.0741376709679 0.24891915197 0.928854631293 0.172263397791 0.10700528341 0.0909425631358 0.0687557131707 0.173657984005 0.0846943527703 0.265467800882 0.907404642715 0.198053860943 0.128850890028 0.0908746415947 0.0594002576471 0.129800563007 0.0741376709679 0.24891915197 0.928854631293 0.172263397791 0.10700528341 0.0909425631358 0.0603042609941 0.143815803169 0.0738255900852 0.239851909789 0.928226240821 0.176102310133 0.11187599695 0.0870002184303
0 0 0 0 0 0 0 1 0 0
0.0647248839618 0.299583748623 0.120031329659 0.379618970585 0.820651319442 0.205442372549 0.157748089284 0.0835617604903 0.0500392311885 0.259833555587 0.103522458046 0.347727797993 0.86036221213 0.191387759312 0.126067606164 0.0748707293723 0.0647248839618 0.299583748623 0.120031329659 0.379618970585 0.820651319442 0.205442372549 0.157748089284 0.0835617604903 0.0500392311885 0.259833555587 0.103522458046 0.347727797993 0.86036221213 0.191387759312 0.126067606164 0.0748707293723 0.0539682799239 0.272990930655 0.105923701667 0.357459932186 0.850278656844 0.19141097263 0.135595599317 0.0746178367882
0 0 0 0 0 0 0 1 0 0
0.075751590722 0.265027588203 0.106151087162 0.277261531892 0.859877355259 0.22783145638 0.186269001221 0.0994368352381 0.0624367814679 0.22391886119 0.0839418602158 0.280314267442 0.887999018453 0.21025648513 0.140060139165 0.0892904171725 0.075751590722 0.265027588203 0.106151087162 0.277261531892 0.859877355259 0.22783145638 0.186269001221 0.0994368352381 0.0624367814679 0.22391886119 0.0839418602158 0.280314267442 0.887999018453 0.21025648513 0.140060139165 0.0892904171725 0.0660657100018 0.237570550371 0.0896393128765 0.27868676628 0.880042954787 0.215991989763 0.15506294031 0.0912215877776
0 0 0 0 0 0 0 1 0 0
0.0565073163766 0.281026105297 0.104648916278 0.268206419403 0.868524036838 0.219522597137 0.161892105863 0.0788158936439 0.0477580917718 0.249418947867 0.107462717363 0.301439652645 0.87459284092 0.211952823025 0.132814047347 0.074960293192 0.0565073163766 0.281026105297 0.104648916278 0.268206419403 0.868524036838 0.219522597137 0.161892105863 0.0788158936439 0.0477580917718 0.249418947867 0.107462717363 0.301439652645 0.87459284092 0.211952823025 0.132814047347 0.074960293192 0.0485374961812 0.265761219312 0.103775981251 0.289147670532 0.874948119151 0.205541665835 0.139335895618 0.0737778876607
0 0 0 0 0 0 0 1 0 0
0.0922854521738 0.260600111558 0.137302745917 0.360513494061 0.739409049734 0.392900935949 0.238404084782 0.129674815588 0.0660169451351 0.237449357533 0.132929311228 0.317467430366 0.785039973962 0.386903255521 0.205254904017 0.112660236827 0.0922854521738 0.260600111558 0.137302745917 0.360513494061 0.739409049734 0.392900935949 0.238404084782 0.129674815588 0.0660169451351 0.237449357533 0.132929311228 0.317467430366 0.785039973962 0.386903255521 0.205254904017 0.112660236827 0.0731378315073 0.238753479762 0.129591520818 0.323399964458 0.776323351195 0.390204631785 0.218085573 0.117333783694
0 0 0 0 0 0 0 1 0 0
0.183096696094 0.299376554283 0.193954432254 0.417976441565 0.773312097593 0.198130484623 0.116001454697 0.117486273317 0.17230340545 0.194490871255 0.171231148739 0.373640223403 0.828194587902 0.220472476194 0.120917564572 0.120092751716 0.183096696094 0.299376554283 0.193954432254 0.417976441565 0.773312097593 0.198130484623 0.116001454697 0.117486273317 0.17230340545 0.194490871255 0.171231148739 0.373640223403 0.828194587902 0.220472476194 0.120917564572 0.120092751716 0.173474389796 0.250375407952 0.185129796717 0.393077056721 0.80471642817 0.207638915905 0.119514172564 0.116060718662
0 0 0 0 0 0 0 1 0 0
0.0721053425461 0.143563736668 0.0990419223879 0.399461245165 0.84873751899 0.206905868741 0.177969630134 0.0998653112914 0.0586253335861 0.112954517564 0.0910175412485 0.331982109516 0.896602621246 0.174507315927 0.151847978173 0.0888884759561 0.0721053425461 0.143563736668 0.0990419223879 0.399461245165 0.84873751899 0.206905868741 0.177969630134 0.0998653112914 0.0586253335861 0.112954517564 0.0910175412485 0.331982109516 0.896602621246 0.174507315927 0.151847978173 0.0888884759561 0.0630029865795 0.120135531945 0.0921947980802 0.342602798711 0.887398990707 0.183042281783 0.162640092647 0.0910399571856
0 0 0 0 0 0 0 1 0 0
0.211522813822 0.262191776829 0.278009072159 0.430418095807 0.711242110356 0.265810988473 0.162864523951 0.144634420858 0.194455846758 0.195075132894 0.214479431827 0.336788443721 0.793305540436 0.311397712138 0.157401892944 0.116735436668 0.211522813822 0.262191776829 0.278009072159 0.430418095807 0.711242110356 0.265810988473 0.162864523951 0.144634420858 0.194455846758 0.195075132894 0.214479431827 0.336788443721 0.793305540436 0.311397712138 0.157401892944 0.116735436668 0.20676141704 0.223744212857 0.241386534726 0.375517645381 0.762412115145 0.291263192345 0.160841915727 0.126216798041
0 0 0 0 0 0 0 1 0 0
0.109787944196 0.292908219337 0.276244514931 0.413283932399 0.749024489417 0.229923026147 0.134392475252 0.151898388545 0.117473219756 0.256587393654 0.268610145955 0.393209578893 0.775970293059 0.229000642011 0.122500916173 0.154984206935 0.109787944196 0.292908219337 0.276244514931 0.413283932399 0.749024489417 0.229923026147 0.134392475252 0.151898388545 0.117473219756 0.256587393654 0.268610145955 0.393209578893 0.775970293059 0.229000642011 0.122500916173 0.154984206935 0.114672329712 0.273367801727 0.271776603812 0.393768443931 0.769397231636 0.228071701091 0.126235034558 0.152578200033
0 0 0 0 0 0 0 1 0 0
0.10585910466 0.352429833411 0.292486392316 0.423725651168 0.683311843606 0.300295670529 0.153582471515 0.137168525642 0.0748198428891 0.234210243676 0.247774357129 0.371782212859 0.794924627547 0.285522174638 0.127048920312 0.101803257196 0.10585910466 0.352429833411 0.292486392316 0.423725651168 0.683311843606 0.300295670529 0.153582471515 0.137168525642 0.0748198428891 0.234210243676 0.247774357129 0.371782212859 0.794924627547 0.285522174638 0.127048920312 0.101803257196 0.0854853606386 0.277626185351 0.264143324798 0.396597336974 0.756489095369 0.291270035283 0.134426132078 0.115630621994
0 0 0 0 0 0 0 1 0 0
0.105410910209 0.321284134358 0.272107233331 0.383980968901 0.724505008647 0.304049933394 0.160827780552 0.144782145171 0.0698707675602 0.221560463676 0.204313553022 0.352574646417 0.790292927058 0.336262809232 0.164520982054 0.123585543513 0.105410910209 0.321284134358 0.272107233331 0.383980968901 0.724505008647 0.304049933394 0.160827780552 0.144782145171 0.0698707675602 0.221560463676 0.204313553022 0.352574646417 0.790292927058 0.336262809232 0.164520982054 0.123585543513 0.0862141574591 0.262099681699 0.230725507105 0.359765845036 0.767197963595 0.326663065781 0.166680704421 0.134615087963
0 0 0 0 0 0 0 1 0 0
0.123171785176 0.372081434385 0.273631628449 0.363381801184 0.715998588623 0.284146293037 0.160724158705 0.142260908386 0.0652843165253 0.264322993004 0.218106867939 0.352461437308 0.790798991121 0.304629363814 0.154022970246 0.110392362668 0.123171785176 0.372081434385 0.273631628449 0.363381801184 0.715998588623 0.284146293037 0.160724158705 0.142260908386 0.0652843165253 0.264322993004 0.218106867939 0.352461437308 0.790798991121 0.304629363814 0.154022970246 0.110392362668 0.089905915517 0.315229820699 0.242805610977 0.351423288347 0.766362198602 0.290293229704 0.153123342016 0.122744684825
0 0 0 0 0 0 0 1 0 0
0.0716684141751 0.322219933709 0.229035290004 0.389281466622 0.757779616643 0.279972738501 0.144802654206 0.11600964632 0.0649082780131 0.277474292648 0.206109570265 0.34788391971 0.794219065105 0.301580898549 0.147084679429 0.109186497093 0.0716684141751 0.322219933709 0.229035290004 0.389281466622 0.757779616643 0.279972738501 0.144802654206 0.11600964632 0.0649082780131 0.277474292648 0.206109570265 0.34788391971 0.794219065105 0.301580898549 0.147084679429 0.109186497093 0.0677490559862 0.290896928832 0.21636987227 0.355427208289 0.784979126075 0.295137047914 0.146392432533 0.113647571303
0 0 0 0 0 0 0 1 0 0
0.0846967205216 0.339654295464 0.198451789196 0.39851448895 0.735814376675 0.308117623375 0.160719307266 0.130669629539 0.0709225076557 0.288741137414 0.199767133356 0.36036748782 0.779195326375 0.315528564416 0.147806977426 0.115223198369 0.0846967205216 0.339654295464 0.198451789196 0.39851448895 0.735814376675 0.308117623375 0.160719307266 0.130669629539 0.0709225076557 0.288741137414 0.199767133356 0.36036748782 0.779195326375 0.315528564416 0.147806977426 0.115223198369 0.0754540862641 0.300720325646 0.197386245638 0.37408512491 0.769063119825 0.31075575337 0.150223160397 0.119911373586
0 0 0 0 0 0 0 1 0 0
0.082531421986 0.373155385181 0.236027143045 0.380037823315 0.743418989634 0.260838621694 0.141176735156 0.114745859299 0.058807567851 0.253832233916 0.199336939193 0.350689270542 0.807747944903 0.291628039566 0.147758770409 0.100281488816 0.082531421986 0.373155385181 0.236027143045 0.380037823315 0.743418989634 0.260838621694 0.141176735156 0.114745859299 0.058807567851 0.253832233916 0.199336939193 0.350689270542 0.807747944903 0.291628039566 0.147758770409 0.100281488816 0.0676915917547 0.305078168245 0.214673130608 0.352058411171 0.786064725874 0.285540462517 0.147844511721 0.105006538561
0 0 0 0 0 0 0 1 0 0
0.0813585861329 0.289107257835 0.234968829462 0.424553957817 0.731623500902 0.311396592193 0.166289503506 0.120201399055 0.0832465556553 0.263980732815 0.210412712764 0.350507750794 0.772683954926 0.339740115639 0.165837018846 0.127629281202 0.0813585861329 0.289107257835 0.234968829462 0.424553957817 0.731623500902 0.311396592193 0.166289503506 0.120201399055 0.0832465556553 0.263980732815 0.210412712764 0.350507750794 0.772683954926 0.339740115639 0.165837018846 0.127629281202 0.0843216421765 0.272110718044 0.222720125442 0.383655764258 0.756551655345 0.325786761565 0.167070924663 0.125018010613
0 0 0 0 0 0 0 1 0 0
0.0804455888996 0.265343757402 0.205167923186 0.37625732131 0.782665902712 0.290237549873 0.146385634604 0.145688861787 0.0628743469269 0.260310319181 0.186123851259 0.353306476665 0.807457442822 0.287713713064 0.13938462265 0.12092569653 0.0804455888996 0.265343757402 0.205167923186 0.37625732131 0.782665902712 0.290237549873 0.146385634604 0.145688861787 0.0628743469269 0.260310319181 0.186123851259 0.353306476665 0.807457442822 0.287713713064 0.13938462265 0.12092569653 0.0692195236191 0.258295427007 0.193894984146 0.364132662752 0.798434061999 0.289144845498 0.141980341432 0.130553278725
0 0 0 0 0 0 0 1 0 0
0.066904523083 0.187343151235 0.100671382695 0.304688231689 0.88533140459 0.171298649618 0.183567974384 0.102978435216 0.0541030801579 0.154348850973 0.0935259614958 0.307629424566 0.901660568363 0.161447726458 0.152694744063 0.0865649282526 0.066904523083 0.187343151235 0.100671382695 0.304688231689 0.88533140459 0.171298649618 0.183567974384 0.102978435216 0.0541030801579 0.154348850973 0.0935259614958 0.307629424566 0.901660568363 0.161447726458 0.152694744063 0.0865649282526 0.0573567756465 0.162786984268 0.0931190680316 0.308978208251 0.897913467354 0.161872932066 0.159473545037 0.0904911679522
0 0 0 0 0 0 0 1 0 0
0.0712448814375 0.267677197401 0.185051640097 0.41817044371 0.749505405304 0.348359712483 0.141564504674 0.104924279935 0.0610595130145 0.251655855664 0.181942238443 0.317282812565 0.815237221289 0.323498657254 0.149042905784 0.0877086593021 0.0712448814375 0.267677197401 0.185051640097 0.41817044371 0.749505405304 0.348359712483 0.141564504674 0.104924279935 0.0610595130145 0.251655855664 0.181942238443 0.317282812565 0.815237221289 0.323498657254 0.149042905784 0.0877086593021 0.0650928989091 0.258944601225 0.180898983815 0.354635553374 0.796125670427 0.327001257758 0.143467822722 0.0942913999375
0 0 0 0 0 0 0 1 0 0
0.0790298597189 0.24727383943 0.197458257751 0.433791291859 0.737398639542 0.349989378755 0.16335553478 0.111852275685 0.0659085825268 0.244591245452 0.212782084001 0.37322749436 0.761087202988 0.364999524598 0.170624342024 0.0983115149917 0.0790298597189 0.24727383943 0.197458257751 0.433791291859 0.737398639542 0.349989378755 0.16335553478 0.111852275685 0.0659085825268 0.244591245452 0.212782084001 0.37322749436 0.761087202988 0.364999524598 0.170624342024 0.0983115149917 0.0697120974015 0.247762415003 0.206428693534 0.384204823929 0.759532837028 0.358088492454 0.167768297335 0.101312173018
0 0 0 0 0 0 0 1 0 0
0.0874918924543 0.286856670326 0.233899451196 0.455942808558 0.714648856086 0.312453672914 0.156682840066 0.120688955192 0.0769730813867 0.229134705952 0.194435351901 0.318401272774 0.801376624762 0.35091952457 0.162630915387 0.102908370015 0.0874918924543 0.286856670326 0.233899451196 0.455942808558 0.714648856086 0.312453672914 0.156682840066 0.120688955192 0.0769730813867 0.229134705952 0.194435351901 0.318401272774 0.801376624762 0.35091952457 0.162630915387 0.102908370015 0.0781455453694 0.25137540973 0.207374690085 0.36480171436 0.774506213234 0.340412553129 0.164342854926 0.108949390102
0 0 0 0 0 0 0 1 0 0
0.0857850725065 0.214311473735 0.173888660486 0.371113683235 0.792075449142 0.34036815196 0.151862763491 0.111591157773 0.0653035687631 0.192346101008 0.160407237682 0.297252434452 0.819752276663 0.369756505884 0.151460078425 0.113996076913 0.0857850725065 0.214311473735 0.173888660486 0.371113683235 0.792075449142 0.34036815196 0.151862763491 0.111591157773 0.0653035687631 0.192346101008 0.160407237682 0.297252434452 0.819752276663 0.369756505884 0.151460078425 0.113996076913 0.071406980014 0.200861687159 0.16486263846 0.324257441115 0.811279053975 0.358010243754 0.151592053184 0.113612761247
0 0 0 0 0 0 0 1 0 0
0.0923960010289 0.230788923136 0.178156380656 0.427645691378 0.746356598082 0.32735732247 0.162924613348 0.181172572202 0.0681926516427 0.18707298165 0.150564697089 0.315637691446 0.805557674255 0.364717397317 0.18049491236 0.153415193781 0.0923960010289 0.230788923136 0.178156380656 0.427645691378 0.746356598082 0.32735732247 0.162924613348 0.181172572202 0.0681926516427 0.18707298165 0.150564697089 0.315637691446 0.805557674255 0.364717397317 0.18049491236 0.153415193781 0.0749635593352 0.203476737691 0.163454821655 0.352045178769 0.792079499878 0.344040795562 0.174767289435 0.161328195858
0 0 0 0 0 0 0 1 0 0
0.103607936205 0.393217205631 0.262849020822 0.3433058209 0.664516831276 0.388815848953 0.180103515272 0.149998235593 0.0848461543241 0.287612938405 0.228281379415 0.332229730774 0.727570960589 0.396961204121 0.195341901841 0.149982621248 0.103607936205 0.393217205631 0.262849020822 0.3433058209 0.664516831276 0.388815848953 0.180103515272 0.149998235593 0.0848461543241 0.287612938405 0.228281379415 0.332229730774 0.727570960589 0.396961204121 0.195341901841 0.149982621248 0.0918260310727 0.335874456512 0.240621681423 0.339890172157 0.70050143704 0.395949562555 0.18868509242 0.149170450477
0 0 0 0 0 0 0 1 0 0
0.105228985689 0.37305235425 0.303277878565 0.413895949773 0.659737522133 0.300370608744 0.180250728855 0.168834376634 0.084606196957 0.30908307296 0.248562596729 0.356438049303 0.738798865828 0.321074904254 0.189624021648 0.153648527767 0.105228985689 0.37305235425 0.303277878565 0.413895949773 0.659737522133 0.300370608744 0.180250728855 0.168834376634 0.084606196957 0.30908307296 0.248562596729 0.356438049303 0.738798865828 0.321074904254 0.189624021648 0.153648527767 0.09266457959 0.32876603504 0.271045950859 0.375386103033 0.71632104471 0.307100447887 0.189275831603 0.160292455999
0 0 0 0 0 0 0 1 0 0
0.0942556764944 0.335781100549 0.234158139107 0.402770227599 0.701866806192 0.331831628206 0.182055484736 0.159497921546 0.0712472203324 0.261558587395 0.197483906022 0.327545945823 0.759492180948 0.379188226333 0.202478118335 0.136437629988 0.0942556764944 0.335781100549 0.234158139107 0.402770227599 0.701866806192 0.331831628206 0.182055484736 0.159497921546 0.0712472203324 0.261558587395 0.197483906022 0.327545945823 0.759492180948 0.379188226333 0.202478118335 0.136437629988 0.0806425545342 0.286065178577 0.204855640155 0.347386666774 0.746456095647 0.365006781447 0.194301017009 0.144362820718
0 0 0 0 0 0 0 1 0 0
0.0600163276091 0.327935369577 0.174047350066 0.40564881943 0.763079392746 0.29561888548 0.118698959049 0.101207020831 0.0495759188976 0.26538742258 0.166803790159 0.333465528974 0.818144713153 0.314182059088 0.111652356027 0.0868999094143 0.0600163276091 0.327935369577 0.174047350066 0.40564881943 0.763079392746 0.29561888548 0.118698959049 0.101207020831 0.0495759188976 0.26538742258 0.166803790159 0.333465528974 0.818144713153 0.314182059088 0.111652356027 0.0868999094143 0.0522648054593 0.286727289325 0.167789858152 0.362062106569 0.800771483645 0.305101634995 0.113745949381 0.0924842065355
0 0 0 0 0 0 0 1 0 0
0.0868995947792 0.319414726756 0.206092957889 0.42283866533 0.691422161935 0.360012606942 0.20231836159 0.143350779419 0.072495293356 0.236895910225 0.1646929366 0.416204833388 0.761609827862 0.353356091164 0.150720053445 0.10318886514 0.0868995947792 0.319414726756 0.206092957889 0.42283866533 0.691422161935 0.360012606942 0.20231836159 0.143350779419 0.072495293356 0.236895910225 0.1646929366 0.416204833388 0.761609827862 0.353356091164 0.150720053445 0.10318886514 0.0781417873737 0.271277414932 0.175722550248 0.419602103928 0.737282234572 0.356654552988 0.168824849264 0.118611515526
0 0 0 0 0 0 0 1 0 0
0.0876436507663 0.0910358615779 0.198755862046 0.485847662779 0.775708615194 0.26196174921 0.132573136823 0.143372828386 0.063207099561 0.0722023260586 0.18303121296 0.33498800711 0.859645415718 0.284191433947 0.117130355731 0.107702203894 0.0876436507663 0.0910358615779 0.198755862046 0.485847662779 0.775708615194 0.26196174921 0.132573136823 0.143372828386 0.063207099561 0.0722023260586 0.18303121296 0.33498800711 0.859645415718 0.284191433947 0.117130355731 0.107702203894 0.071196623149 0.0779453052768 0.183871988499 0.383530367939 0.839007212597 0.273341359163 0.121278948413 0.120805356685
0 0 0 0 0 0 0 1 0 0
0.0948633399583 0.282469257331 0.267950190682 0.397072002508 0.697975580416 0.36762603026 0.189971383287 0.152776470973 0.0685385456115 0.243254164983 0.191045884003 0.348581336494 0.739839907323 0.4240405147 0.194202663783 0.115040340065 0.0948633399583 0.282469257331 0.267950190682 0.397072002508 0.697975580416 0.36762603026 0.189971383287 0.152776470973 0.0685385456115 0.243254164983 0.191045884003 0.348581336494 0.739839907323 0.4240405147 0.194202663783 0.115040340065 0.0782955687032 0.257130324622 0.225438089396 0.357078973294 0.727494275386 0.407028691857 0.194730085078 0.128786614265
0 0 0 0 0 0 0 1 0 0
0.199209877407 0.283673779075 0.303499710978 0.465773605661 0.660230691174 0.25094741203 0.17069312604 0.206814344438 0.212208092273 0.26875844725 0.292994313669 0.437688206633 0.657830659936 0.299197541383 0.19374267024 0.21336218115 0.199209877407 0.283673779075 0.303499710978 0.465773605661 0.660230691174 0.25094741203 0.17069312604 0.206814344438 0.212208092273 0.26875844725 0.292994313669 0.437688206633 0.657830659936 0.299197541383 0.19374267024 0.21336218115 0.209016821672 0.274979924147 0.303650816712 0.451917425467 0.654418135193 0.280694053085 0.183553861142 0.208615830168
0 0 0 0 0 0 0 1 0 0
0.220296827878 0.326571520837 0.341729559453 0.490615183187 0.558152666351 0.273181540381 0.230570609606 0.219117869319 0.233031416125 0.306079189756 0.331330271998 0.472736332557 0.556966728324 0.319245825497 0.234293970237 0.227440105057 0.220296827878 0.326571520837 0.341729559453 0.490615183187 0.558152666351 0.273181540381 0.230570609606 0.219117869319 0.233031416125 0.306079189756 0.331330271998 0.472736332557 0.556966728324 0.319245825497 0.234293970237 0.227440105057 0.225550455286 0.318315182515 0.335361164349 0.489269087288 0.554859060868 0.291510993688 0.229873711548 0.224191717604
0 0 0 0 0 0 0 1 0 0
0.232949953385 0.321578251774 0.383562552317 0.471080684129 0.539911011896 0.278836838563 0.237575647455 0.21814773236 0.241332348209 0.313350896012 0.366512219599 0.4341173745 0.532816888481 0.347253777846 0.256378005828 0.224882429212 0.232949953385 0.321578251774 0.383562552317 0.471080684129 0.539911011896 0.278836838563 0.237575647455 0.21814773236 0.241332348209 0.313350896012 0.366512219599 0.4341173745 0.532816888481 0.347253777846 0.256378005828 0.224882429212 0.232808359783 0.32173868674 0.373671805255 0.453558370148 0.536048442302 0.309543310624 0.254321551358 0.221572170553
0 0 0 0 0 0 0 1 0 0
0.240068098998 0.326077534299 0.379159923604 0.451200309089 0.504482256248 0.335855869171 0.249048202451 0.243660140379 0.259539635464 0.290442020076 0.377291859181 0.405770527353 0.489994673647 0.405770527353 0.290442020076 0.228435274483 0.240068098998 0.326077534299 0.379159923604 0.451200309089 0.504482256248 0.335855869171 0.249048202451 0.243660140379 0.259539635464 0.290442020076 0.377291859181 0.405770527353 0.489994673647 0.405770527353 0.290442020076 0.228435274483 0.247283773782 0.310205492211 0.371564820341 0.429373261426 0.501669321653 0.37625199124 0.272424054057 0.229671374041
0 0 0 0 0 0 0 1 0 0
0.26567476983 0.337515396365 0.407661668502 0.481535520317 0.463575363683 0.338532009005 0.221282684565 0.197392287533 0.261277174705 0.335045278273 0.397548301986 0.401545588386 0.505111645119 0.36775034882 0.26055039536 0.204770080593 0.26567476983 0.337515396365 0.407661668502 0.481535520317 0.463575363683 0.338532009005 0.221282684565 0.197392287533 0.261277174705 0.335045278273 0.397548301986 0.401545588386 0.505111645119 0.36775034882 0.26055039536 0.204770080593 0.264782364032 0.335622173305 0.40695736586 0.445597261827 0.487457149125 0.344786764015 0.239517816669 0.198029466832
0 0 0 0 0 0 0 1 0 0
0.290315955221 0.38554487903 0.460686451722 0.448617508254 0.497141274118 0.296846410934 0.0942369558521 0.0971301957247 0.220129529961 0.304480239389 0.514819062005 0.392381425106 0.582062931128 0.25789368686 0.135778820533 0.126848834713 0.290315955221 0.38554487903 0.460686451722 0.448617508254 0.497141274118 0.296846410934 0.0942369558521 0.0971301957247 0.220129529961 0.304480239389 0.514819062005 0.392381425106 0.582062931128 0.25789368686 0.135778820533 0.126848834713 0.266376204849 0.365499145671 0.474307279497 0.429020652895 0.526340143985 0.292492828745 0.110477994689 0.107873011743
0 0 0 0 0 0 0 1 0 0
0.32727497934 0.441823987657 0.41964429073 0.459689429321 0.395915886786 0.348956877582 0.100500023231 0.147127166646 0.186718910756 0.517311370385 0.378369336237 0.605761932665 0.339867326774 0.244268330305 0.0691769359209 0.0863241293244 0.32727497934 0.441823987657 0.41964429073 0.459689429321 0.395915886786 0.348956877582 0.100500023231 0.147127166646 0.186718910756 0.517311370385 0.378369336237 0.605761932665 0.339867326774 0.244268330305 0.0691769359209 0.0863241293244 0.251494268897 0.491590978518 0.388122510717 0.561222942219 0.361302629046 0.281555331487 0.0828816263594 0.113120775813
0 0 0 0 0 0 0 1 0 0
0.121952700662 0.19026604274 0.535501249003 0.337303323293 0.650513552066 0.29813965113 0.160323184528 0.103114478608 0.109150600212 0.166454665324 0.524312704592 0.280361113117 0.696302864641 0.291977855568 0.167858030184 0.0927780101806 0.121952700662 0.19026604274 0.535501249003 0.337303323293 0.650513552066 0.29813965113 0.160323184528 0.103114478608 0.109150600212 0.166454665324 0.524312704592 0.280361113117 0.696302864641 0.291977855568 0.167858030184 0.0927780101806 0.111897651269 0.175918388971 0.523934872653 0.310183246964 0.681306349161 0.291636334501 0.164334270888 0.0978488272107
0 0 0 0 0 0 0 1 0 0
0.138732220838 0.189876785833 0.54364394897 0.364016782437 0.642309476177 0.250339186557 0.169274015724 0.112952875324 0.124603485631 0.16115807963 0.511366983443 0.264146674897 0.716787908416 0.276066651201 0.161078613122 0.106246722123 0.138732220838 0.189876785833 0.54364394897 0.364016782437 0.642309476177 0.250339186557 0.169274015724 0.112952875324 0.124603485631 0.16115807963 0.511366983443 0.264146674897 0.716787908416 0.276066651201 0.161078613122 0.106246722123 0.133119365403 0.176344906468 0.516985121673 0.301686224658 0.69415883645 0.266111221835 0.168375595799 0.108956415457
0 0 0 0 0 0 0 1 0 0
0.0931268805493 0.0894626454572 0.197868694976 0.422285810242 0.771701737707 0.33081820596 0.183557437163 0.164890579146 0.0745896906814 0.0706787972344 0.182068581676 0.366775838449 0.824774444528 0.307264291177 0.157142525851 0.149697692543 0.0931268805493 0.0894626454572 0.197868694976 0.422285810242 0.771701737707 0.33081820596 0.183557437163 0.164890579146 0.0745896906814 0.0706787972344 0.182068581676 0.366775838449 0.824774444528 0.307264291177 0.157142525851 0.149697692543 0.0804620471572 0.0758520406037 0.18075874436 0.385690968463 0.813298130967 0.3094127928 0.163287206917 0.149960801418
0 0 0 0 0 0 0 1 0 0
0.265053229222 0.28746111092 0.309636183457 0.330239794161 0.632658893642 0.392108828562 0.204813858944 0.214999259716 0.212823404794 0.237352655076 0.270841956997 0.201201951677 0.715473430456 0.439441740578 0.211537060747 0.18647553017 0.265053229222 0.28746111092 0.309636183457 0.330239794161 0.632658893642 0.392108828562 0.204813858944 0.214999259716 0.212823404794 0.237352655076 0.270841956997 0.201201951677 0.715473430456 0.439441740578 0.211537060747 0.18647553017 0.242124295615 0.256348215605 0.285325481888 0.260054199722 0.68853655377 0.411081876243 0.212229357075 0.196240682743
0 0 0 0 0 0 0 1 0 0
0.177536770996 0.317356356298 0.251879867571 0.201271998159 0.704690709923 0.411342399491 0.256790604226 0.179105478538 0.140410232028 0.288612965729 0.259862990609 0.122211594578 0.754565845333 0.422198708713 0.211849564145 0.148396336228 0.177536770996 0.317356356298 0.251879867571 0.201271998159 0.704690709923 0.411342399491 0.256790604226 0.179105478538 0.140410232028 0.288612965729 0.259862990609 0.122211594578 0.754565845333 0.422198708713 0.211849564145 0.148396336228 0.151169015844 0.298284920299 0.259198479781 0.156626670783 0.734295368174 0.423249166473 0.228940598723 0.160358743645
0 0 0 0 0 0 0 1 0 0
0.122519069806 0.298021929893 0.278521612105 0.372408507989 0.627719985752 0.471241825946 0.217357200704 0.128702097397 0.103075169493 0.250604878708 0.256068942013 0.250200133278 0.68611096133 0.495813151684 0.26409639304 0.10988838423 0.122519069806 0.298021929893 0.278521612105 0.372408507989 0.627719985752 0.471241825946 0.217357200704 0.128702097397 0.103075169493 0.250604878708 0.256068942013 0.250200133278 0.68611096133 0.495813151684 0.26409639304 0.10988838423 0.110826742372 0.265415553538 0.264133352796 0.304662045807 0.655539066174 0.494483503441 0.257387861938 0.119133173264
0 0 0 0 0 0 0 1 0 0
0.148735459844 0.352859000564 0.266527445173 0.296363158071 0.643018693577 0.435793420329 0.255745232096 0.160330031441 0.116435289296 0.26838636874 0.236654221008 0.171979159969 0.739626419568 0.448538196329 0.247147522642 0.139692078015 0.148735459844 0.352859000564 0.266527445173 0.296363158071 0.643018693577 0.435793420329 0.255745232096 0.160330031441 0.116435289296 0.26838636874 0.236654221008 0.171979159969 0.739626419568 0.448538196329 0.247147522642 0.139692078015 0.12660646731 0.298059684585 0.246072530297 0.220099831528 0.711910838119 0.44249628433 0.249580097333 0.145689302258
0 0 0 0 0 0 0 1 0 0
0.140981380693 0.289218535616 0.258170571466 0.331403269516 0.590333166192 0.532202602878 0.262726522727 0.138703405062 0.109537622765 0.259202315383 0.257230754147 0.255375167102 0.67015685881 0.502400192501 0.267436482896 0.128035506122 0.140981380693 0.289218535616 0.258170571466 0.331403269516 0.590333166192 0.532202602878 0.262726522727 0.138703405062 0.109537622765 0.259202315383 0.257230754147 0.255375167102 0.67015685881 0.502400192501 0.267436482896 0.128035506122 0.120432537267 0.270378570163 0.259699344771 0.279989873016 0.649151278059 0.50658361907 0.266106880006 0.133101981937
0 0 0 0 0 0 0 1 0 0
0.146290552568 0.259778015224 0.240609461461 0.299398373211 0.69006793547 0.459082852467 0.244138400229 0.130490531266 0.109909788365 0.239636644631 0.227924035871 0.263727982081 0.726292763112 0.462176211073 0.232031775436 0.118513837454 0.146290552568 0.259778015224 0.240609461461 0.299398373211 0.69006793547 0.459082852467 0.244138400229 0.130490531266 0.109909788365 0.239636644631 0.227924035871 0.263727982081 0.726292763112 0.462176211073 0.232031775436 0.118513837454 0.12444011158 0.248741235693 0.232572360436 0.275148854308 0.712542411056 0.462457629854 0.235259451453 0.126154290332
0 0 0 0 0 0 0 1 0 0
0.171309529627 0.268177112647 0.239051701038 0.370627841664 0.640759055409 0.434275706012 0.283623816568 0.156886402472 0.140885120596 0.243725314112 0.254227299191 0.198877214306 0.70317064879 0.450660655335 0.303698914441 0.163672446712 0.171309529627 0.268177112647 0.239051701038 0.370627841664 0.640759055409 0.434275706012 0.283623816568 0.156886402472 0.140885120596 0.243725314112 0.254227299191 0.198877214306 0.70317064879 0.450660655335 0.303698914441 0.163672446712 0.148210250326 0.248234960174 0.245428549575 0.265020472626 0.689741593691 0.446007480705 0.292925725188 0.159594746153
0 0 0 0 0 0 0 1 0 0
0.169820238236 0.317814988107 0.335155787081 0.327756049588 0.564173925265 0.435986553534 0.324317787722 0.191944705893 0.159012448594 0.271519201606 0.300489962789 0.209166717483 0.64857474752 0.423833523085 0.357614640383 0.19691404593 0.169820238236 0.317814988107 0.335155787081 0.327756049588 0.564173925265 0.435986553534 0.324317787722 0.191944705893 0.159012448594 0.271519201606 0.300489962789 0.209166717483 0.64857474752 0.423833523085 0.357614640383 0.19691404593 0.162624026627 0.285850814865 0.3173862725 0.257804574531 0.618253971952 0.432088770368 0.343224147453 0.194689491954
0 0 0 0 0 0 0 1 0 0
0.121935161035 0.327868346974 0.364622412331 0.384340258552 0.615827773195 0.39285836812 0.211533054266 0.136526367239 0.109262640144 0.345550729527 0.320646172444 0.29793907628 0.673399690539 0.401463901802 0.206073001746 0.141308945214 0.121935161035 0.327868346974 0.364622412331 0.384340258552 0.615827773195 0.39285836812 0.211533054266 0.136526367239 0.109262640144 0.345550729527 0.320646172444 0.29793907628 0.673399690539 0.401463901802 0.206073001746 0.141308945214 0.111074092343 0.332042645632 0.339214804526 0.331476422561 0.651911495246 0.407539055041 0.204878381034 0.139338060615
0 0 0 0 0 0 0 1 0 0
0.137870845232 0.282209924205 0.25429905258 0.340867057587 0.686607441966 0.417599803069 0.235514592947 0.138579692765 0.115256069653 0.242222340576 0.248048598351 0.26898851491 0.74893370986 0.425778303356 0.192324192303 0.122409099 0.137870845232 0.282209924205 0.25429905258 0.340867057587 0.686607441966 0.417599803069 0.235514592947 0.138579692765 0.115256069653 0.242222340576 0.248048598351 0.26898851491 0.74893370986 0.425778303356 0.192324192303 0.122409099 0.120391175598 0.256002536403 0.249591461605 0.298775661392 0.728366612366 0.422298965135 0.207992884671 0.127634221935
0 0 0 0 0 0 0 1 0 0
0.0869172038622 0.0854835180253 0.219294196136 0.410034149354 0.776460354502 0.336139591844 0.170429403862 0.154897807295 0.0838412240268 0.0805103651528 0.215585457913 0.345620435272 0.81509622815 0.324802567309 0.177718851766 0.138186816182 0.0869172038622 0.0854835180253 0.219294196136 0.410034149354 0.776460354502 0.336139591844 0.170429403862 0.154897807295 0.0838412240268 0.0805103651528 0.215585457913 0.345620435272 0.81509622815 0.324802567309 0.177718851766 0.138186816182 0.0836234677477 0.0817124786413 0.215127829216 0.372501320995 0.802615424679 0.326531416381 0.173227623625 0.143076462168
0 0 0 0 0 0 0 1 0 0
0.140052525435 0.340404322628 0.275665345453 0.436867013057 0.603719214829 0.403205973803 0.223276821529 0.144088621269 0.112566864081 0.293396699596 0.261334672023 0.265823355883 0.692831268568 0.45428978342 0.241339625736 0.132853383346 0.140052525435 0.340404322628 0.275665345453 0.436867013057 0.603719214829 0.403205973803 0.223276821529 0.144088621269 0.112566864081 0.293396699596 0.261334672023 0.265823355883 0.692831268568 0.45428978342 0.241339625736 0.132853383346 0.122661379301 0.30653564055 0.26610403723 0.340228643316 0.663445854465 0.437632051312 0.231374326687 0.138588980608
0 0 0 0 0 0 0 1 0 0
0.135998784842 0.256928873882 0.220703120337 0.384023429386 0.684560195665 0.414236925515 0.238892101633 0.148403822295 0.103730164245 0.220499480459 0.213184834232 0.203325963231 0.775617523451 0.435009431761 0.214827979399 0.129861472866 0.135998784842 0.256928873882 0.220703120337 0.384023429386 0.684560195665 0.414236925515 0.238892101633 0.148403822295 0.103730164245 0.220499480459 0.213184834232 0.203325963231 0.775617523451 0.435009431761 0.214827979399 0.129861472866 0.115869285987 0.231039247729 0.209884689291 0.28479979913 0.749631883806 0.423397123108 0.221205000521 0.133745762022
0 0 0 0 0 0 0 1 0 0
0.229998300076 0.235119183532 0.214547358612 0.400400111648 0.653883842749 0.376384934059 0.245714114822 0.236355258849 0.212148101692 0.216547635365 0.202249150926 0.234663362255 0.727993424896 0.417632203848 0.249026545718 0.213830276331 0.229998300076 0.235119183532 0.214547358612 0.400400111648 0.653883842749 0.376384934059 0.245714114822 0.236355258849 0.212148101692 0.216547635365 0.202249150926 0.234663362255 0.727993424896 0.417632203848 0.249026545718 0.213830276331 0.213817696325 0.217425129139 0.202634654604 0.306683323893 0.710664264239 0.396353796683 0.247418356244 0.220311075389
0 0 0 0 0 0 0 1 0 0
0.144502125287 0.254880857133 0.22467468998 0.328524711346 0.677767197282 0.43542146427 0.293269674755 0.144153927395 0.101282192372 0.219295035148 0.196557070674 0.25578806455 0.797120048394 0.379302933297 0.215421159719 0.109142229474 0.144502125287 0.254880857133 0.22467468998 0.328524711346 0.677767197282 0.43542146427 0.293269674755 0.144153927395 0.101282192372 0.219295035148 0.196557070674 0.25578806455 0.797120048394 0.379302933297 0.215421159719 0.109142229474 0.116208255401 0.231460850807 0.202647701955 0.280581774553 0.762712242068 0.398510217945 0.240778535759 0.120890989377
0 0 0 0 0 0 0 1 0 0
0.172484287928 0.285459986151 0.251401135952 0.342778538926 0.63994389488 0.468969977249 0.244906543674 0.136461956343 0.137074856141 0.261201273102 0.253108498615 0.266615060173 0.731810062589 0.422052142564 0.222746641229 0.120610245977 0.172484287928 0.285459986151 0.251401135952 0.342778538926 0.63994389488 0.468969977249 0.244906543674 0.136461956343 0.137074856141 0.261201273102 0.253108498615 0.266615060173 0.731810062589 0.422052142564 0.222746641229 0.120610245977 0.148543680075 0.269212940766 0.246239024144 0.295873474145 0.707290912513 0.433402262689 0.230683299778 0.12637902079
0 0 0 0 0 0 0 1 0 0
0.157214684255 0.302213898594 0.253114055226 0.344254152204 0.642660631603 0.438725740977 0.263901742945 0.161973958249 0.15292306882 0.279555938823 0.254260787371 0.200999567853 0.732250119262 0.424047290492 0.238863738661 0.14265836968 0.157214684255 0.302213898594 0.253114055226 0.344254152204 0.642660631603 0.438725740977 0.263901742945 0.161973958249 0.15292306882 0.279555938823 0.254260787371 0.200999567853 0.732250119262 0.424047290492 0.238863738661 0.14265836968 0.152594713796 0.28635821436 0.255724339314 0.258067189786 0.707275614351 0.42361388827 0.248032717008 0.146671280526
0 0 0 0 0 0 0 1 0 0
0.14598948968 0.282198637732 0.271066541569 0.348275579956 0.708398890829 0.362985849886 0.230752450464 0.132074369477 0.11045837664 0.264224454914 0.266545452322 0.206779769068 0.790035867687 0.356536851819 0.201082775431 0.111671625285 0.14598948968 0.282198637732 0.271066541569 0.348275579956 0.708398890829 0.362985849886 0.230752450464 0.132074369477 0.11045837664 0.264224454914 0.266545452322 0.206779769068 0.790035867687 0.356536851819 0.201082775431 0.111671625285 0.125551107726 0.269720569621 0.270792129573 0.247173162294 0.769335397308 0.353212949225 0.214758473742 0.119612879658
0 0 0 0 0 0 0 1 0 0
0.113904540124 0.290062396926 0.243304447281 0.28632447944 0.708573231104 0.45289967505 0.202119392797 0.116894874113 0.0922194640405 0.283972988165 0.255084963285 0.23800214088 0.736829814091 0.438505403309 0.209345590558 0.100552548141 0.113904540124 0.290062396926 0.243304447281 0.28632447944 0.708573231104 0.45289967505 0.202119392797 0.116894874113 0.0922194640405 0.283972988165 0.255084963285 0.23800214088 0.736829814091 0.438505403309 0.209345590558 0.100552548141 0.0994211889454 0.284555610498 0.25452132414 0.253866730719 0.725751576004 0.44512352603 0.208699784696 0.107276309993
0 0 0 0 0 0 0 1 0 0
0.101954114738 0.122968811496 0.303728039075 0.406913483701 0.651866042782 0.48186042956 0.215893173721 0.113692793005 0.0850707412689 0.0964422955164 0.215915586977 0.273133217526 0.744836803208 0.489408663815 0.241249682516 0.0986734232485 0.101954114738 0.122968811496 0.303728039075 0.406913483701 0.651866042782 0.48186042956 0.215893173721 0.113692793005 0.0850707412689 0.0964422955164 0.215915586977 0.273133217526 0.744836803208 0.489408663815 0.241249682516 0.0986734232485 0.0908679335202 0.106012589107 0.266654114437 0.345244059321 0.710122082849 0.472729606528 0.227494362135 0.103470450491
0 0 0 0 0 0 0 1 0 0
0.105946959197 0.132136095179 0.218853269215 0.535686872346 0.613613287451 0.445398452494 0.214000037722 0.125543025981 0.093978051191 0.102514702853 0.16414333722 0.315856111493 0.683306547504 0.569709174073 0.222027826121 0.114795499981 0.105946959197 0.132136095179 0.218853269215 0.535686872346 0.613613287451 0.445398452494 0.214000037722 0.125543025981 0.093978051191 0.102514702853 0.16414333722 0.315856111493 0.683306547504 0.569709174073 0.222027826121 0.114795499981 0.0983638968076 0.114614825658 0.181392410052 0.411880936138 0.673326337252 0.510874270331 0.215897023069 0.116903688876
0 0 0 0 0 0 0 1 0 0
0.132130707363 0.0899676501823 0.237538350316 0.450357866053 0.729168504737 0.313996006824 0.230783353479 0.177931070534 0.109261384112 0.0628302353484 0.222968303744 0.418324892426 0.77623989662 0.301110939217 0.195949326751 0.166707581998 0.132130707363 0.0899676501823 0.237538350316 0.450357866053 0.729168504737 0.313996006824 0.230783353479 0.177931070534 0.109261384112 0.0628302353484 0.222968303744 0.418324892426 0.77623989662 0.301110939217 0.195949326751 0.166707581998 0.117101263528 0.0721709205713 0.218339873627 0.425260297796 0.766930225564 0.300061606472 0.212733962075 0.170544286989
0 0 0 0 0 0 0 1 0 0
0.155198660119 0.206176322201 0.290491756948 0.585946418564 0.578987563105 0.348751942185 0.147214856957 0.16480080176 0.160923347192 0.201824970614 0.269688944196 0.375771394704 0.670459411136 0.444551564651 0.209089098934 0.169038229279 0.155198660119 0.206176322201 0.290491756948 0.585946418564 0.578987563105 0.348751942185 0.147214856957 0.16480080176 0.160923347192 0.201824970614 0.269688944196 0.375771394704 0.670459411136 0.444551564651 0.209089098934 0.169038229279 0.153705811822 0.199018398733 0.281570873544 0.513082899955 0.62338274222 0.386394261707 0.171068199645 0.164496454721
0 0 0 0 0 0 0 1 0 0
0.131014923822 0.156808715294 0.203646733236 0.468234038959 0.681891393814 0.444193933026 0.14548282952 0.118666054817 0.139936419153 0.149283978078 0.20294589042 0.32432567408 0.728832631375 0.480879975765 0.177880584268 0.132943060255 0.131014923822 0.156808715294 0.203646733236 0.468234038959 0.681891393814 0.444193933026 0.14548282952 0.118666054817 0.139936419153 0.149283978078 0.20294589042 0.32432567408 0.728832631375 0.480879975765 0.177880584268 0.132943060255 0.134695322421 0.152577892189 0.205223776854 0.400930219658 0.713399323885 0.453576104324 0.160041485733 0.124226254967
0 0 0 0 0 0 0 1 0 0
0.19285534409 0.225142737918 0.226145452012 0.523082519065 0.596815428781 0.432102926931 0.1428533346 0.155086446547 0.157905207515 0.173468400725 0.190430532651 0.338951192949 0.734442825651 0.455704286582 0.174342737422 0.127886314244 0.19285534409 0.225142737918 0.226145452012 0.523082519065 0.596815428781 0.432102926931 0.1428533346 0.155086446547 0.157905207515 0.173468400725 0.190430532651 0.338951192949 0.734442825651 0.455704286582 0.174342737422 0.127886314244 0.168869134111 0.188132595961 0.202720880554 0.430679060566 0.694436977545 0.427605564405 0.160557707874 0.136532491409
0 0 0 0 0 0 0 1 0 0
0.192034694606 0.229355654768 0.368468004226 0.535035732163 0.555914056189 0.359214241562 0.170773983694 0.14576588129 0.189923223662 0.180228095292 0.242667616061 0.29794431811 0.709697867009 0.460229190747 0.215391023558 0.1480315869 0.192034694606 0.229355654768 0.368468004226 0.535035732163 0.555914056189 0.359214241562 0.170773983694 0.14576588129 0.189923223662 0.180228095292 0.242667616061 0.29794431811 0.709697867009 0.460229190747 0.215391023558 0.1480315869 0.188065044851 0.20516652184 0.305880908778 0.435012420652 0.651340984359 0.399119799786 0.187143408367 0.145516160486
0 0 0 0 0 0 0 1 0 0
0.168027076782 0.174456076886 0.242079633531 0.53503567529 0.645677973369 0.3695484504 0.159931298874 0.131992928053 0.17505129511 0.1576102348 0.249585132435 0.264605800702 0.728324440941 0.466708536293 0.2082249037 0.143443822549 0.168027076782 0.174456076886 0.242079633531 0.53503567529 0.645677973369 0.3695484504 0.159931298874 0.131992928053 0.17505129511 0.1576102348 0.249585132435 0.264605800702 0.728324440941 0.466708536293 0.2082249037 0.143443822549 0.171610584203 0.165554979053 0.249701561918 0.413308215837 0.691128848625 0.422733896896 0.187513129901 0.135803527665
0 0 0 0 0 0 0 1 0 0
0.165941163653 0.279024490248 0.359054770397 0.501203148059 0.579002854521 0.373384516504 0.149178064432 0.132550151496 0.16954113352 0.23003758497 0.307769688309 0.349588461219 0.648911993423 0.468040650495 0.204836452527 0.138915234148 0.165941163653 0.279024490248 0.359054770397 0.501203148059 0.579002854521 0.373384516504 0.149178064432 0.132550151496 0.16954113352 0.23003758497 0.307769688309 0.349588461219 0.648911993423 0.468040650495 0.204836452527 0.138915234148 0.163525610138 0.252700007609 0.332509916903 0.441825022616 0.614668063202 0.421637256644 0.175948850736 0.130679314922
0 0 0 0 0 0 0 1 0 0
0.168703106139 0.205567858962 0.214583210137 0.4825444401 0.619292143066 0.459961431712 0.192446506263 0.135141006717 0.138791381909 0.1613320483 0.211069322009 0.320299174225 0.688488026552 0.512670828702 0.237083468138 0.120463233499 0.168703106139 0.205567858962 0.214583210137 0.4825444401 0.619292143066 0.459961431712 0.192446506263 0.135141006717 0.138791381909 0.1613320483 0.211069322009 0.320299174225 0.688488026552 0.512670828702 0.237083468138 0.120463233499 0.147940279209 0.176111410808 0.207964314062 0.395734668443 0.662495760139 0.498099077322 0.213319618287 0.121386895761
0 0 0 0 0 0 0 1 0 0
0.16777726818 0.186293459641 0.213244804989 0.437599324854 0.610725715012 0.520202112315 0.190099565663 0.142986145169 0.153751165367 0.148829858061 0.199947953309 0.286388334871 0.689538654386 0.54301069813 0.215585010396 0.124143945604 0.16777726818 0.186293459641 0.213244804989 0.437599324854 0.610725715012 0.520202112315 0.190099565663 0.142986145169 0.153751165367 0.148829858061 0.199947953309 0.286388334871 0.689538654386 0.54301069813 0.215585010396 0.124143945604 0.1592304382 0.166595860273 0.204921022583 0.35341542183 0.662076541743 0.534367613261 0.199240908951 0.128083441469
0 0 0 0 0 0 0 1 0 0
0.142035201878 0.197171982507 0.237320123741 0.44609045816 0.639158408452 0.470268560993 0.193692476933 0.135789935464 0.110725400108 0.135732223562 0.193903176517 0.287912785545 0.744721924154 0.496726447705 0.190493155137 0.105777525948 0.142035201878 0.197171982507 0.237320123741 0.44609045816 0.639158408452 0.470268560993 0.193692476933 0.135789935464 0.110725400108 0.135732223562 0.193903176517 0.287912785545 0.744721924154 0.496726447705 0.190493155137 0.105777525948 0.124786596159 0.159980064379 0.207405408749 0.365990610059 0.707195576341 0.481603299106 0.191364483448 0.114807960353
0 0 0 0 0 0 0 1 0 0
0.103163202971 0.0991555232842 0.280468480147 0.409474307305 0.745566617587 0.343485788325 0.183662286334 0.160030795767 0.0909714161532 0.0898692889509 0.252708583085 0.339455178296 0.805930516652 0.328755360041 0.160083976128 0.146031854299 0.103163202971 0.0991555232842 0.280468480147 0.409474307305 0.745566617587 0.343485788325 0.183662286334 0.160030795767 0.0909714161532 0.0898692889509 0.252708583085 0.339455178296 0.805930516652 0.328755360041 0.160083976128 0.146031854299 0.0946634575822 0.0906597977251 0.260122400522 0.366565857299 0.787720076879 0.330725402232 0.169770576632 0.148597375464
0 0 0 0 0 0 0 1 0 0
0.142422020898 0.178697747397 0.221256798348 0.495042189109 0.640647761062 0.428774060561 0.21061703561 0.122985603928 0.13492541787 0.160798705019 0.23834993706 0.301900769689 0.67757815393 0.516230413639 0.263674188939 0.113375783479 0.142422020898 0.178697747397 0.221256798348 0.495042189109 0.640647761062 0.428774060561 0.21061703561 0.122985603928 0.13492541787 0.160798705019 0.23834993706 0.301900769689 0.67757815393 0.516230413639 0.263674188939 0.113375783479 0.134090922152 0.166932722226 0.229054532254 0.398134804405 0.665583338978 0.479165529627 0.239163730682 0.115653420356
0 0 0 0 0 0 0 1 0 0
0.186645816308 0.17569674704 0.225837344623 0.413506438433 0.627576091786 0.4846242248 0.241800473649 0.158505685012 0.164439185892 0.152849101362 0.223634181382 0.324444581058 0.669346828101 0.52458745017 0.225034325822 0.143048090282 0.186645816308 0.17569674704 0.225837344623 0.413506438433 0.627576091786 0.4846242248 0.241800473649 0.158505685012 0.164439185892 0.152849101362 0.223634181382 0.324444581058 0.669346828101 0.52458745017 0.225034325822 0.143048090282 0.172810144034 0.160826510291 0.220068679156 0.358710103389 0.652216948306 0.517201341463 0.228918131767 0.147921058567
0 0 0 0 0 0 0 1 0 0
0.183945527295 0.209271360763 0.26228130369 0.399779047337 0.635093977739 0.459761284498 0.231111047114 0.160055166169 0.156845741679 0.16126498655 0.249425176595 0.306575750092 0.674871123461 0.506640208556 0.2536197141 0.129356540535 0.183945527295 0.209271360763 0.26228130369 0.399779047337 0.635093977739 0.459761284498 0.231111047114 0.160055166169 0.156845741679 0.16126498655 0.249425176595 0.306575750092 0.674871123461 0.506640208556 0.2536197141 0.129356540535 0.163927419783 0.176869058187 0.249840455948 0.342862279406 0.667132345893 0.485827890507 0.247653136781 0.139441596888
0 0 0 0 0 0 0 1 0 0
0.162907000051 0.166746558975 0.249114239697 0.371523034909 0.616980551821 0.542749079295 0.22479703318 0.140692409135 0.13931617531 0.148407580132 0.231958870932 0.306290708953 0.663608528073 0.54324345014 0.247324625562 0.119532766224 0.162907000051 0.166746558975 0.249114239697 0.371523034909 0.616980551821 0.542749079295 0.22479703318 0.140692409135 0.13931617531 0.148407580132 0.231958870932 0.306290708953 0.663608528073 0.54324345014 0.247324625562 0.119532766224 0.144867651989 0.152624675323 0.23601267616 0.336382268619 0.649755528837 0.540528254327 0.239052590709 0.12395513638
0 0 0 0 0 0 0 1 0 0
0.139754027836 0.182261460263 0.227024389105 0.355674434593 0.683328663728 0.482936482287 0.229973884416 0.12708854797 0.134364916224 0.163976635991 0.250865485075 0.336433623653 0.691843771947 0.482337379035 0.230568249929 0.120323678212 0.139754027836 0.182261460263 0.227024389105 0.355674434593 0.683328663728 0.482936482287 0.229973884416 0.12708854797 0.134364916224 0.163976635991 0.250865485075 0.336433623653 0.691843771947 0.482337379035 0.230568249929 0.120323678212 0.134819265394 0.168671850965 0.239171203773 0.341212568852 0.686885081517 0.491077427833 0.228639288262 0.12041848296
0 0 0 0 0 0 0 1 0 0
0.302117519911 0.287729024848 0.370299365833 0.378065883054 0.528654564336 0.43018330125 0.138325759353 0.249427832025 0.259658176191 0.215586522087 0.356058217652 0.319921605892 0.577167100289 0.491650934478 0.212423228179 0.192371161713 0.302117519911 0.287729024848 0.370299365833 0.378065883054 0.528654564336 0.43018330125 0.138325759353 0.249427832025 0.259658176191 0.215586522087 0.356058217652 0.319921605892 0.577167100289 0.491650934478 0.212423228179 0.192371161713 0.285007817752 0.260664387949 0.366574115012 0.35285327276 0.553481072144 0.454558225583 0.165598552344 0.227057808884
0 0 0 0 0 0 0 1 0 0
0.182558558139 0.190512674673 0.256076217761 0.422340420669 0.66250840536 0.436009145199 0.189122634891 0.147112543678 0.182997263702 0.179692426432 0.251945241244 0.298536966669 0.644702470457 0.534994833259 0.244363555744 0.141589596738 0.182558558139 0.190512674673 0.256076217761 0.422340420669 0.66250840536 0.436009145199 0.189122634891 0.147112543678 0.182997263702 0.179692426432 0.251945241244 0.298536966669 0.644702470457 0.534994833259 0.244363555744 0.141589596738 0.178468754462 0.181668001302 0.249541253481 0.364468043792 0.658798753027 0.486383957969 0.224784004862 0.137567614099
0 0 0 0 0 0 0 1 0 0
0.166994979326 0.1703237829 0.274996161968 0.404819501377 0.632935013003 0.480642249465 0.2184065012 0.155806500644 0.146488714251 0.161276218528 0.29929292512 0.32378472908 0.61884165037 0.538819687117 0.262324164426 0.126540987126 0.166994979326 0.1703237829 0.274996161968 0.404819501377 0.632935013003 0.480642249465 0.2184065012 0.155806500644 0.146488714251 0.161276218528 0.29929292512 0.32378472908 0.61884165037 0.538819687117 0.262324164426 0.126540987126 0.154871295753 0.163449144455 0.288826741245 0.365557360461 0.628474298433 0.508560673762 0.244762449964 0.136834312522
0 0 0 0 0 0 0 1 0 0
0.14770385349 0.157633524313 0.220314571383 0.350124330578 0.624638355202 0.554303186874 0.255171853334 0.140256600373 0.133680522577 0.138241387465 0.223482379508 0.282694987449 0.662190400365 0.535115268315 0.304241142265 0.125502420019 0.14770385349 0.157633524313 0.220314571383 0.350124330578 0.624638355202 0.554303186874 0.255171853334 0.140256600373 0.133680522577 0.138241387465 0.223482379508 0.282694987449 0.662190400365 0.535115268315 0.304241142265 0.125502420019 0.140981259383 0.147802933224 0.226125855103 0.310449323417 0.644585014338 0.543775834241 0.286573464973 0.132138348848
0 0 0 0 0 0 0 1 0 0
0.157597349785 0.159452720247 0.239997626162 0.353830060945 0.633881861186 0.532818740756 0.234540654216 0.161962927342 0.143269327851 0.122186478184 0.234419343328 0.293749147038 0.670418944441 0.538122103406 0.259656063004 0.129788844049 0.157597349785 0.159452720247 0.239997626162 0.353830060945 0.633881861186 0.532818740756 0.234540654216 0.161962927342 0.143269327851 0.122186478184 0.234419343328 0.293749147038 0.670418944441 0.538122103406 0.259656063004 0.129788844049 0.146715948954 0.139193702667 0.240904759304 0.314905660814 0.657457184051 0.532986510443 0.254406226999 0.144401411635
0 0 0 0 0 0 0 1 0 0
0.0859346080333 0.0857151071188 0.248968912291 0.376005066567 0.757168404625 0.385772857263 0.205782107359 0.132029800082 0.0742634727233 0.0843689452774 0.263564824871 0.338180814078 0.776319635746 0.391606645721 0.184170278874 0.116565450857 0.0859346080333 0.0857151071188 0.248968912291 0.376005066567 0.757168404625 0.385772857263 0.205782107359 0.132029800082 0.0742634727233 0.0843689452774 0.263564824871 0.338180814078 0.776319635746 0.391606645721 0.184170278874 0.116565450857 0.078544704382 0.0842981847852 0.255383419474 0.355099638823 0.768121956762 0.391495250812 0.192709270587 0.12243923465
0 0 0 0 0 0 0 1 0 0
0.165750973212 0.198335277968 0.283310033507 0.379237496528 0.593636745468 0.522261601717 0.249265367754 0.147679005868 0.12775680883 0.156707547673 0.249287652318 0.282347528287 0.611638835257 0.592213823388 0.283841759969 0.108954393496 0.165750973212 0.198335277968 0.283310033507 0.379237496528 0.593636745468 0.522261601717 0.249265367754 0.147679005868 0.12775680883 0.156707547673 0.249287652318 0.282347528287 0.611638835257 0.592213823388 0.283841759969 0.108954393496 0.13995117577 0.170965996774 0.258063816419 0.315325890901 0.610453700024 0.566058931446 0.278108105696 0.121393547334
0 0 0 0 0 0 0 1 0 0
0.177859600529 0.207925031454 0.299222622066 0.405718122816 0.532918022885 0.505936225901 0.326755067968 0.155723514023 0.147087237897 0.174293626586 0.286314852395 0.336841002818 0.588089843124 0.508198066815 0.36145630687 0.133354489321 0.177859600529 0.207925031454 0.299222622066 0.405718122816 0.532918022885 0.505936225901 0.326755067968 0.155723514023 0.147087237897 0.174293626586 0.286314852395 0.336841002818 0.588089843124 0.508198066815 0.36145630687 0.133354489321 0.156029769763 0.186643631446 0.283733307068 0.363867613143 0.574396785023 0.509333918546 0.345633862559 0.138199718453
0 0 0 0 0 0 0 1 0 0
0.167455013874 0.196991359495 0.267062940947 0.357278557277 0.566381054307 0.548461514077 0.297217201748 0.155714625448 0.123876526158 0.144054352068 0.215145004536 0.300794341522 0.617679860669 0.5966506497 0.278488052963 0.109828672676 0.167455013874 0.196991359495 0.267062940947 0.357278557277 0.566381054307 0.548461514077 0.297217201748 0.155714625448 0.123876526158 0.144054352068 0.215145004536 0.300794341522 0.617679860669 0.5966506497 0.278488052963 0.109828672676 0.138225845804 0.16367180722 0.23267899898 0.322620956781 0.598367774112 0.582226153159 0.288223092042 0.125608596238
0 0 0 0 0 0 0 1 0 0
0.1527734278 0.194552748219 0.28027435115 0.381136688729 0.593562334239 0.524347547278 0.257620169233 0.146170701412 0.124072963914 0.147844778226 0.235950721974 0.322554357755 0.605164997782 0.569993317128 0.31380562312 0.115942826678 0.1527734278 0.194552748219 0.28027435115 0.381136688729 0.593562334239 0.524347547278 0.257620169233 0.146170701412 0.124072963914 0.147844778226 0.235950721974 0.322554357755 0.605164997782 0.569993317128 0.31380562312 0.115942826678 0.137282264386 0.165829608321 0.254871820051 0.347810071276 0.600273430548 0.549554080032 0.296878209515 0.13133194952
0 0 0 0 0 0 0 1 0 0
0.136048409616 0.148706393514 0.251764309662 0.354822225811 0.550472795829 0.615855767777 0.266615015181 0.129270906426 0.123566469116 0.135915349436 0.236881037589 0.323090202089 0.600745844509 0.596396553327 0.276412987797 0.113003904817 0.136048409616 0.148706393514 0.251764309662 0.354822225811 0.550472795829 0.615855767777 0.266615015181 0.129270906426 0.123566469116 0.135915349436 0.236881037589 0.323090202089 0.600745844509 0.596396553327 0.276412987797 0.113003904817 0.128839029667 0.141240320811 0.239106667671 0.336117753072 0.583349404596 0.605708382717 0.268124467145 0.119308973419
0 0 0 0 0 0 0 1 0 0
0.196382162144 0.210181989755 0.315538365932 0.361980093466 0.495997650065 0.581715810028 0.262064033943 0.183245787785 0.161907445105 0.162467033049 0.282591911675 0.312809660646 0.573764171823 0.579546580576 0.291825112749 0.139430662691 0.196382162144 0.210181989755 0.315538365932 0.361980093466 0.495997650065 0.581715810028 0.262064033943 0.183245787785 0.161907445105 0.162467033049 0.282591911675 0.312809660646 0.573764171823 0.579546580576 0.291825112749 0.139430662691 0.175439234485 0.181715856312 0.296072844235 0.332201691826 0.546984628983 0.576224501397 0.287729529855 0.155461206474
0 0 0 0 0 0 0 1 0 0
0.155605816244 0.211759746814 0.291685103716 0.353054194145 0.601198777181 0.514481584185 0.267064697872 0.154150422796 0.134081664611 0.177565156384 0.275334928073 0.33198148103 0.595424264172 0.541955001845 0.314824111625 0.130813594248 0.155605816244 0.211759746814 0.291685103716 0.353054194145 0.601198777181 0.514481584185 0.267064697872 0.154150422796 0.134081664611 0.177565156384 0.275334928073 0.33198148103 0.595424264172 0.541955001845 0.314824111625 0.130813594248 0.143771505749 0.193208982255 0.279706255964 0.343425670127 0.589074997831 0.536561411676 0.302337634097 0.139670026217
0 0 0 0 0 0 0 1 0 0
0.136064303695 0.180057650602 0.249840200867 0.342144544111 0.479725859769 0.644963470431 0.328491436451 0.124745060592 0.129664964244 0.147487439409 0.259416027401 0.301518396269 0.480173642488 0.668385868143 0.335183071581 0.116491830426 0.136064303695 0.180057650602 0.249840200867 0.342144544111 0.479725859769 0.644963470431 0.328491436451 0.124745060592 0.129664964244 0.147487439409 0.259416027401 0.301518396269 0.480173642488 0.668385868143 0.335183071581 0.116491830426 0.13150968708 0.155072997821 0.251272472936 0.317096824768 0.48760066325 0.661093358257 0.324951261681 0.120735901934
0 0 0 0 0 0 0 1 0 0
0.156086847208 0.172414736579 0.246862136929 0.43055089236 0.621917643389 0.486337847714 0.23714315516 0.141605564372 0.152573376918 0.140767993199 0.247614187613 0.283179774005 0.671337801962 0.526759210221 0.266891333179 0.126496928071 0.156086847208 0.172414736579 0.246862136929 0.43055089236 0.621917643389 0.486337847714 0.23714315516 0.141605564372 0.152573376918 0.140767993199 0.247614187613 0.283179774005 0.671337801962 0.526759210221 0.266891333179 0.126496928071 0.157381331156 0.15367683513 0.247245234746 0.350134624363 0.646673556225 0.516358946031 0.2554907259 0.13342160686
0 0 0 0 0 0 0 1 0 0
0.16105540572 0.183230873643 0.241987770403 0.394788074925 0.627225826296 0.496034463144 0.257526784422 0.142440961843 0.130744392112 0.155213314658 0.239941524072 0.291192351892 0.688903645216 0.507091029183 0.267940788677 0.113701361483 0.16105540572 0.183230873643 0.241987770403 0.394788074925 0.627225826296 0.496034463144 0.257526784422 0.142440961843 0.130744392112 0.155213314658 0.239941524072 0.291192351892 0.688903645216 0.507091029183 0.267940788677 0.113701361483 0.145521226811 0.165087932308 0.241289926077 0.328111036398 0.671364146396 0.497967738639 0.26646116531 0.126446147081
0 0 0 0 0 0 0 1 0 0
0.103508424287 0.0860631842386 0.227120410915 0.411763046856 0.717414728846 0.404064988549 0.244953322965 0.150970553561 0.0813157094024 0.0740479038358 0.217082883547 0.301176340627 0.778149863022 0.40524675018 0.247447851307 0.13820245978 0.103508424287 0.0860631842386 0.227120410915 0.411763046856 0.717414728846 0.404064988549 0.244953322965 0.150970553561 0.0813157094024 0.0740479038358 0.217082883547 0.301176340627 0.778149863022 0.40524675018 0.247447851307 0.13820245978 0.0903042931935 0.0778886315814 0.213580811782 0.337423107355 0.765810581053 0.400004328291 0.245075730605 0.140627012791
0 0 0 0 0 0 0 1 0 0
0.182177547615 0.158355147927 0.238543046877 0.395834694817 0.638844441635 0.478255943738 0.256409846643 0.159844047907 0.161615597571 0.127606962364 0.211435264934 0.299365486224 0.709035295848 0.485443435435 0.25752591528 0.136258281847 0.182177547615 0.158355147927 0.238543046877 0.395834694817 0.638844441635 0.478255943738 0.256409846643 0.159844047907 0.161615597571 0.127606962364 0.211435264934 0.299365486224 0.709035295848 0.485443435435 0.25752591528 0.136258281847 0.171399311905 0.137970586805 0.226291498877 0.338974673706 0.688249342047 0.468063828013 0.267861537101 0.144755014408
0 0 0 0 0 0 0 1 0 0
0.177947444614 0.167958099897 0.229461124233 0.35413206369 0.638044910105 0.501132126632 0.283912846415 0.152386474309 0.154892424636 0.135906905172 0.226021272203 0.292938543269 0.70413548066 0.484464998418 0.277094993576 0.115517526876 0.177947444614 0.167958099897 0.229461124233 0.35413206369 0.638044910105 0.501132126632 0.283912846415 0.152386474309 0.154892424636 0.135906905172 0.226021272203 0.292938543269 0.70413548066 0.484464998418 0.277094993576 0.115517526876 0.162511748808 0.146865346226 0.228426380964 0.320251899665 0.684280436343 0.486980409453 0.27481075174 0.127945405514
0 0 0 0 0 0 0 1 0 0
0.219849691187 0.180213328593 0.291635547884 0.397684838024 0.58468038866 0.483739785255 0.265475548572 0.172197975268 0.144339807256 0.127419901987 0.218071548293 0.286792394308 0.644778543863 0.571762644972 0.269937565598 0.132691103243 0.219849691187 0.180213328593 0.291635547884 0.397684838024 0.58468038866 0.483739785255 0.265475548572 0.172197975268 0.144339807256 0.127419901987 0.218071548293 0.286792394308 0.644778543863 0.571762644972 0.269937565598 0.132691103243 0.173096090291 0.146330784389 0.241869492135 0.321648705093 0.634513429485 0.53974977886 0.26713635427 0.146175772965
0 0 0 0 0 0 0 1 0 0
0.246431113184 0.20103144185 0.274010352779 0.330611438349 0.639838358611 0.441352692724 0.278762467909 0.180495515751 0.247302578484 0.180716028609 0.264428612662 0.229978173253 0.695621156591 0.443888291273 0.275537391589 0.162862633905 0.246431113184 0.20103144185 0.274010352779 0.330611438349 0.639838358611 0.441352692724 0.278762467909 0.180495515751 0.247302578484 0.180716028609 0.264428612662 0.229978173253 0.695621156591 0.443888291273 0.275537391589 0.162862633905 0.242763498029 0.185615294936 0.262674862908 0.271932354631 0.68660592242 0.434481497006 0.274156221358 0.168238103769
0 0 0 0 0 0 0 1 0 0
0.268086970807 0.179575996543 0.249063716637 0.348319306683 0.596414246488 0.493811972838 0.269848383231 0.200360663136 0.263831869455 0.155360400355 0.231701849709 0.274999010464 0.630845509637 0.495729633919 0.321692026964 0.172470288918 0.268086970807 0.179575996543 0.249063716637 0.348319306683 0.596414246488 0.493811972838 0.269848383231 0.200360663136 0.263831869455 0.155360400355 0.231701849709 0.274999010464 0.630845509637 0.495729633919 0.321692026964 0.172470288918 0.263429997528 0.163741053291 0.23831152339 0.300741397655 0.626391948831 0.491223159873 0.300584407192 0.180382042408
0 0 0 0 0 0 0 1 0 0
0.169662793622 0.236074696564 0.405228865109 0.376237235706 0.64413732996 0.358290036552 0.225902195019 0.124104518846 0.166544736219 0.193389316036 0.294869050501 0.258574697071 0.733410773699 0.409710885233 0.253338198317 0.105452250761 0.169662793622 0.236074696564 0.405228865109 0.376237235706 0.64413732996 0.358290036552 0.225902195019 0.124104518846 0.166544736219 0.193389316036 0.294869050501 0.258574697071 0.733410773699 0.409710885233 0.253338198317 0.105452250761 0.16727690238 0.209456137971 0.345191519463 0.324891601013 0.696096745951 0.382446747375 0.245503590414 0.111115343097
0 0 0 0 0 0 0 1 0 0
0.121918735123 0.18480741082 0.294067176777 0.496069123256 0.673768556736 0.336918125879 0.196247869585 0.111493701692 0.131158853191 0.160718121161 0.234477645366 0.286164770597 0.774142254413 0.395583974549 0.234089437343 0.097551130132 0.121918735123 0.18480741082 0.294067176777 0.496069123256 0.673768556736 0.336918125879 0.196247869585 0.111493701692 0.131158853191 0.160718121161 0.234477645366 0.286164770597 0.774142254413 0.395583974549 0.234089437343 0.097551130132 0.127417261539 0.169861243872 0.259014935408 0.393555960815 0.735709912875 0.36791894234 0.214608718715 0.101225698571
0 0 0 0 0 0 0 1 0 0
0.113572860932 0.22551343415 0.256011441435 0.390718132767 0.688567685605 0.419669762218 0.236252169109 0.109449186707 0.0863435749267 0.165259145025 0.208319233167 0.307284831337 0.766089791248 0.423843072522 0.234568573539 0.0765140347022 0.113572860932 0.22551343415 0.256011441435 0.390718132767 0.688567685605 0.419669762218 0.236252169109 0.109449186707 0.0863435749267 0.165259145025 0.208319233167 0.307284831337 0.766089791248 0.423843072522 0.234568573539 0.0765140347022 0.0964288056313 0.185363877101 0.227451327457 0.328781695056 0.7400887267 0.427331368846 0.241590448517 0.0883223762234
0 0 0 0 0 0 0 1 0 0
0.131988537497 0.226689639282 0.247534663583 0.396684406432 0.673599772372 0.426694053487 0.242503105993 0.133965220836 0.104342596079 0.187154180269 0.278048175075 0.317532738417 0.731060665227 0.413859173146 0.243863553122 0.103680103405 0.131988537497 0.226689639282 0.247534663583 0.396684406432 0.673599772372 0.426694053487 0.242503105993 0.133965220836 0.104342596079 0.187154180269 0.278048175075 0.317532738417 0.731060665227 0.413859173146 0.243863553122 0.103680103405 0.111486243984 0.200760465157 0.264573422774 0.341596408346 0.712755580863 0.422348030839 0.248593550249 0.111273179017
0 0 0 0 0 0 0 1 0 0
0.121660219843 0.127343616974 0.237193027153 0.384872549487 0.608833917694 0.43628953291 0.409826215017 0.188706545376 0.0960607738532 0.111788608363 0.227146225327 0.368515260903 0.650164481974 0.470201760177 0.345104984152 0.167259470846 0.121660219843 0.127343616974 0.237193027153 0.384872549487 0.608833917694 0.43628953291 0.409826215017 0.188706545376 0.0960607738532 0.111788608363 0.227146225327 0.368515260903 0.650164481974 0.470201760177 0.345104984152 0.167259470846 0.102077432106 0.117044797517 0.227154715727 0.369195013482 0.640303892301 0.458051272808 0.370941206113 0.174868719223
0 0 0 0 0 0 0 1 0 0
0.173115805154 0.0713568101266 0.228620711533 0.329589435699 0.756521646906 0.403595977537 0.202541773108 0.166747151742 0.156383742525 0.066771699267 0.255996687847 0.316794250897 0.800666278211 0.330656887423 0.169817297444 0.161103640199 0.173115805154 0.0713568101266 0.228620711533 0.329589435699 0.756521646906 0.403595977537 0.202541773108 0.166747151742 0.156383742525 0.066771699267 0.255996687847 0.316794250897 0.800666278211 0.330656887423 0.169817297444 0.161103640199 0.16086019693 0.0681606403125 0.241263150577 0.321774683498 0.789425623882 0.352665487431 0.181680273043 0.164796195674
0 0 0 0 0 0 0 1 0 0
0.107438556818 0.209085277688 0.274339962692 0.357259747334 0.702453169778 0.413633617218 0.250593435309 0.120470187699 0.0858733474623 0.154114904951 0.256771104351 0.273292744585 0.775080426639 0.406510713272 0.228168422839 0.100958323328 0.107438556818 0.209085277688 0.274339962692 0.357259747334 0.702453169778 0.413633617218 0.250593435309 0.120470187699 0.0858733474623 0.154114904951 0.256771104351 0.273292744585 0.775080426639 0.406510713272 0.228168422839 0.100958323328 0.092741860435 0.173299452989 0.258371751945 0.299983202522 0.756349307536 0.412034951786 0.226496836863 0.107156284491
0 0 0 0 0 0 0 1 0 0
0.150854980743 0.212499196529 0.255540219622 0.342721545377 0.714362599393 0.401490722292 0.243955504173 0.135295946855 0.144032462161 0.184055311413 0.251341003546 0.293853610139 0.732362121775 0.413050742827 0.269578476067 0.127351087978 0.150854980743 0.212499196529 0.255540219622 0.342721545377 0.714362599393 0.401490722292 0.243955504173 0.135295946855 0.144032462161 0.184055311413 0.251341003546 0.293853610139 0.732362121775 0.413050742827 0.269578476067 0.127351087978 0.15020370045 0.195977641706 0.25366604598 0.309521455944 0.72871707147 0.405295408671 0.256975619041 0.132484755448
0 0 0 0 0 0 0 1 0 0
0.124355627625 0.20608824831 0.263319574332 0.366594842776 0.728196968904 0.381665450436 0.217737920489 0.122414015595 0.0897308611962 0.158680030704 0.232900358162 0.321055930776 0.755653815556 0.418542058841 0.235626819171 0.0879738085462 0.124355627625 0.20608824831 0.263319574332 0.366594842776 0.728196968904 0.381665450436 0.217737920489 0.122414015595 0.0897308611962 0.158680030704 0.232900358162 0.321055930776 0.755653815556 0.418542058841 0.235626819171 0.0879738085462 0.10101441051 0.170278494334 0.238564853349 0.341123039873 0.746467161925 0.406733520464 0.233264555702 0.102300890522
0 0 0 0 0 0 0 1 0 0
0.172109260118 0.249908649502 0.342384022308 0.2990231622 0.631817763523 0.442364159362 0.289350354946 0.150595602603 0.153181660217 0.217759543836 0.324946884066 0.222471804614 0.674649729683 0.439169430527 0.327203459649 0.137651110611 0.172109260118 0.249908649502 0.342384022308 0.2990231622 0.631817763523 0.442364159362 0.289350354946 0.150595602603 0.153181660217 0.217759543836 0.324946884066 0.222471804614 0.674649729683 0.439169430527 0.327203459649 0.137651110611 0.15950933805 0.228233004151 0.329790735293 0.258736575616 0.660772611746 0.43901320086 0.310836054213 0.144179869198
0 0 0 0 0 0 0 1 0 0
0.109724285373 0.173004859146 0.244256507765 0.339584055917 0.763027072708 0.374152492747 0.211884183392 0.126317135051 0.113340873316 0.155288253508 0.233732224376 0.310635754728 0.771701450569 0.393997285703 0.222119672797 0.108719551769 0.109724285373 0.173004859146 0.244256507765 0.339584055917 0.763027072708 0.374152492747 0.211884183392 0.126317135051 0.113340873316 0.155288253508 0.233732224376 0.310635754728 0.771701450569 0.393997285703 0.222119672797 0.108719551769 0.111837279457 0.159788051394 0.234537657947 0.321825290694 0.763623221353 0.394325709341 0.226593717686 0.11585710465
0 0 0 0 0 0 0 1 0 0
0.186656571275 0.192578313866 0.24855094932 0.272724638255 0.690085811314 0.442589418893 0.308255093804 0.157453457125 0.198716419619 0.161735114665 0.243797759052 0.207945147427 0.772358205624 0.385349181247 0.25176500608 0.152506386858 0.186656571275 0.192578313866 0.24855094932 0.272724638255 0.690085811314 0.442589418893 0.308255093804 0.157453457125 0.198716419619 0.161735114665 0.243797759052 0.207945147427 0.772358205624 0.385349181247 0.25176500608 0.152506386858 0.189628456811 0.169955334776 0.238019227116 0.238223623189 0.749980291194 0.399798718969 0.275321510455 0.153756945984
0 0 0 0 0 0 0 1 0 0
0.133936152296 0.188065788976 0.255467596187 0.323389880674 0.671502431947 0.467128354998 0.30014189569 0.132808451532 0.1117806251 0.169796520007 0.213996129596 0.296706290115 0.724135895154 0.448435360092 0.294830776271 0.111593073716 0.133936152296 0.188065788976 0.255467596187 0.323389880674 0.671502431947 0.467128354998 0.30014189569 0.132808451532 0.1117806251 0.169796520007 0.213996129596 0.296706290115 0.724135895154 0.448435360092 0.294830776271 0.111593073716 0.121391370928 0.174404702239 0.227163650962 0.304648587225 0.712220369499 0.447560725086 0.2976276278 0.119508939778
0 0 0 0 0 0 0 1 0 0
0.158552210651 0.247231844573 0.294560862678 0.38535784741 0.644546496557 0.408648706319 0.256946748289 0.173249116272 0.130879489902 0.197027367038 0.252344987213 0.323741373493 0.707715637629 0.439125264972 0.260342715431 0.118716278237 0.158552210651 0.247231844573 0.294560862678 0.38535784741 0.644546496557 0.408648706319 0.256946748289 0.173249116272 0.130879489902 0.197027367038 0.252344987213 0.323741373493 0.707715637629 0.439125264972 0.260342715431 0.118716278237 0.136480267001 0.217796563028 0.26786954806 0.344094858143 0.686167269815 0.430362661045 0.261732469114 0.138711932072
0 0 0 0 0 0 0 1 0 0
0.171357908767 0.231740491298 0.326923449796 0.268613168914 0.736238754808 0.320706544849 0.220164185534 0.211017474808 0.197812973933 0.226541909171 0.310901174477 0.214991853783 0.636203367382 0.488611203905 0.301690370813 0.179318264988 0.171357908767 0.231740491298 0.326923449796 0.268613168914 0.736238754808 0.320706544849 0.220164185534 0.211017474808 0.197812973933 0.226541909171 0.310901174477 0.214991853783 0.636203367382 0.488611203905 0.301690370813 0.179318264988 0.179903771461 0.226498645903 0.323027441164 0.236718151481 0.689310710393 0.411916903048 0.27122163071 0.193816464698
0 0 0 0 0 0 0 1 0 0
0.112145167339 0.0880273051518 0.195719054293 0.340079207814 0.762344224182 0.406186441577 0.230247504474 0.162925702111 0.0977868149847 0.0807484959771 0.186532889272 0.318898605644 0.78982847046 0.403549301666 0.213771018297 0.122668169726 0.112145167339 0.0880273051518 0.195719054293 0.340079207814 0.762344224182 0.406186441577 0.230247504474 0.162925702111 0.0977868149847 0.0807484959771 0.186532889272 0.318898605644 0.78982847046 0.403549301666 0.213771018297 0.122668169726 0.0999358691948 0.0828847377917 0.185321439592 0.334656872338 0.777693983708 0.405232317174 0.218871570524 0.140988497944
0 0 0 0 0 0 0 1 0 0
0.177639139863 0.184182965794 0.238077622052 0.28814891934 0.726732308944 0.43233366821 0.243959712776 0.142273069386 0.184711110537 0.15007040067 0.216342150553 0.235757471756 0.750292990214 0.429025486775 0.269453971474 0.146175533802 0.177639139863 0.184182965794 0.238077622052 0.28814891934 0.726732308944 0.43233366821 0.243959712776 0.142273069386 0.184711110537 0.15007040067 0.216342150553 0.235757471756 0.750292990214 0.429025486775 0.269453971474 0.146175533802 0.17866250706 0.164901769988 0.22380499105 0.25555005776 0.736085895889 0.437800347752 0.266949216192 0.144010882025
0 0 0 0 0 0 0 1 0 0
0.140995626861 0.199078184971 0.235021651424 0.323751657983 0.715136070476 0.438006734922 0.250041505763 0.121027034387 0.113799700609 0.174585986793 0.223287886413 0.321298941259 0.717108145404 0.450644385388 0.27654420308 0.0983754082102 0.140995626861 0.199078184971 0.235021651424 0.323751657983 0.715136070476 0.438006734922 0.250041505763 0.121027034387 0.113799700609 0.174585986793 0.223287886413 0.321298941259 0.717108145404 0.450644385388 0.27654420308 0.0983754082102 0.118766887787 0.183507859924 0.230073292319 0.322403031391 0.713953226371 0.446477377064 0.27478612149 0.103745780563
0 0 0 0 0 0 0 1 0 0
0.175139046609 0.22456364127 0.263223409441 0.363570313752 0.649727483973 0.448659246605 0.258543050099 0.164748648868 0.177433054374 0.17771214687 0.243787295314 0.331143246583 0.688172322175 0.434895881995 0.29444258335 0.135778499336 0.175139046609 0.22456364127 0.263223409441 0.363570313752 0.649727483973 0.448659246605 0.258543050099 0.164748648868 0.177433054374 0.17771214687 0.243787295314 0.331143246583 0.688172322175 0.434895881995 0.29444258335 0.135778499336 0.172824368224 0.193084616222 0.247019177513 0.345203456273 0.679330568173 0.435205711802 0.284756672411 0.143825496777
0 0 0 0 0 0 0 1 0 0
0.127141812206 0.170443733754 0.240463862216 0.315090578076 0.692922876523 0.451077038087 0.30716724775 0.140408783914 0.109188696993 0.148516169512 0.224728414393 0.289093563516 0.721512558711 0.477792150601 0.269307692249 0.102715541579 0.127141812206 0.170443733754 0.240463862216 0.315090578076 0.692922876523 0.451077038087 0.30716724775 0.140408783914 0.109188696993 0.148516169512 0.224728414393 0.289093563516 0.721512558711 0.477792150601 0.269307692249 0.102715541579 0.117334968244 0.154275639079 0.229378159951 0.30234361722 0.709352468472 0.466388689908 0.290131825208 0.11631731891
0 0 0 0 0 0 0 1 0 0
0.149687567872 0.168478719993 0.233468607085 0.346032191498 0.702330768545 0.422480098176 0.28425054989 0.149687567872 0.132146391636 0.129731864974 0.197012324123 0.273755117488 0.728926022012 0.450080821291 0.320348956317 0.124184979399 0.149687567872 0.168478719993 0.233468607085 0.346032191498 0.702330768545 0.422480098176 0.28425054989 0.149687567872 0.132146391636 0.129731864974 0.197012324123 0.273755117488 0.728926022012 0.450080821291 0.320348956317 0.124184979399 0.136461904644 0.147398251522 0.211130755744 0.293234167776 0.722122135747 0.43880071588 0.311982190996 0.133229486847
0 0 0 0 0 0 0 1 0 0
0.0996663778285 0.213666608145 0.281144685649 0.344347754516 0.687186682454 0.457761218941 0.229173992416 0.111820814149 0.0948725844521 0.178041383503 0.216945027713 0.302206123596 0.787357451394 0.385701844027 0.208837377491 0.0927149033447 0.0996663778285 0.213666608145 0.281144685649 0.344347754516 0.687186682454 0.457761218941 0.229173992416 0.111820814149 0.0948725844521 0.178041383503 0.216945027713 0.302206123596 0.787357451394 0.385701844027 0.208837377491 0.0927149033447 0.0942609752174 0.192247478963 0.248436614704 0.320905799765 0.74612639831 0.41812678395 0.219448940679 0.098803057943
0 0 0 0 0 0 0 1 0 0
0.106217841021 0.23507095991 0.267464202089 0.342888467212 0.698014381469 0.441827826657 0.221473796527 0.113416339283 0.0819220224816 0.184709936442 0.266246573065 0.296251614901 0.750126045908 0.428328854104 0.218623891985 0.0810411405194 0.106217841021 0.23507095991 0.267464202089 0.342888467212 0.698014381469 0.441827826657 0.221473796527 0.113416339283 0.0819220224816 0.184709936442 0.266246573065 0.296251614901 0.750126045908 0.428328854104 0.218623891985 0.0810411405194 0.0902393173711 0.194180616981 0.265735413117 0.318098207195 0.740599060204 0.423700353137 0.214110772965 0.0921769714251
0 0 0 0 0 0 0 1 0 0
0.117002069836 0.250303867576 0.261357706039 0.326181911265 0.697890648743 0.44749310457 0.222388241626 0.110444708036 0.0855956442808 0.196058348635 0.216435522862 0.303470233119 0.767540229214 0.42636646751 0.195022221132 0.0797242550968 0.117002069836 0.250303867576 0.261357706039 0.326181911265 0.697890648743 0.44749310457 0.222388241626 0.110444708036 0.0855956442808 0.196058348635 0.216435522862 0.303470233119 0.767540229214 0.42636646751 0.195022221132 0.0797242550968 0.0959692851401 0.208999776527 0.228243230085 0.31374764744 0.749601951219 0.429456351436 0.205230440264 0.0901168946251
0 0 0 0 0 0 0 1 0 0
0.126827513896 0.188529354373 0.215045847801 0.341144886603 0.727382381536 0.43278705345 0.238575593343 0.111529536918 0.106245896866 0.178967855671 0.212387682123 0.299372931345 0.765792939144 0.413583366291 0.233366171313 0.0999992003328 0.126827513896 0.188529354373 0.215045847801 0.341144886603 0.727382381536 0.43278705345 0.238575593343 0.111529536918 0.106245896866 0.178967855671 0.212387682123 0.299372931345 0.765792939144 0.413583366291 0.233366171313 0.0999992003328 0.112959707303 0.182616036931 0.219536048177 0.315674722319 0.749484854453 0.42151783867 0.237176567568 0.101918208613
0 0 0 0 0 0 0 1 0 0
0.160887888183 0.200280749694 0.232312727432 0.242342942683 0.703571066575 0.437365918254 0.329055771307 0.163476330829 0.159343262089 0.17743156661 0.244287985441 0.153526881483 0.701800648911 0.47534530291 0.337605740214 0.165607056587 0.160887888183 0.200280749694 0.232312727432 0.242342942683 0.703571066575 0.437365918254 0.329055771307 0.163476330829 0.159343262089 0.17743156661 0.244287985441 0.153526881483 0.701800648911 0.47534530291 0.337605740214 0.165607056587 0.157125590469 0.187185708224 0.232953366643 0.19561659267 0.702674071462 0.46184184257 0.335328392052 0.168065666714
0 0 0 0 0 0 0 1 0 0
0.104835613363 0.0917773583499 0.271205173701 0.324238935808 0.746168402047 0.420020004421 0.233323915053 0.119495352482 0.108096486494 0.092217426813 0.260136360075 0.285568329993 0.780281708089 0.404831107119 0.211013172772 0.11548407041 0.104835613363 0.0917773583499 0.271205173701 0.324238935808 0.746168402047 0.420020004421 0.233323915053 0.119495352482 0.108096486494 0.092217426813 0.260136360075 0.285568329993 0.780281708089 0.404831107119 0.211013172772 0.11548407041 0.106090572523 0.0912953902346 0.261019270467 0.298077345535 0.77005067247 0.410653957687 0.220174750643 0.115486565066
0 0 0 0 0 0 0 1 0 0
0.0791235299455 0.157662691132 0.165551669376 0.364470794882 0.812506322276 0.335018609437 0.162863573086 0.0985245727386 0.0638719863489 0.150481011317 0.176212049295 0.33163966825 0.814975304079 0.351339316214 0.194176045456 0.0831377213617 0.0791235299455 0.157662691132 0.165551669376 0.364470794882 0.812506322276 0.335018609437 0.162863573086 0.0985245727386 0.0638719863489 0.150481011317 0.176212049295 0.33163966825 0.814975304079 0.351339316214 0.194176045456 0.0831377213617 0.0686328899223 0.153650475902 0.172179949769 0.339261657203 0.816773582426 0.343621533407 0.183993807871 0.0888148975122
0 0 0 0 0 0 0 1 0 0
0.092479240877 0.100084441607 0.206313885404 0.276707623361 0.733871449643 0.505593744531 0.23430102409 0.114929793432 0.0730819614153 0.0806135836716 0.207461958515 0.263138304859 0.79582940626 0.439140424954 0.207173666754 0.0822712612974 0.092479240877 0.100084441607 0.206313885404 0.276707623361 0.733871449643 0.505593744531 0.23430102409 0.114929793432 0.0730819614153 0.0806135836716 0.207461958515 0.263138304859 0.79582940626 0.439140424954 0.207173666754 0.0822712612974 0.0770742212744 0.0863539575158 0.200978739395 0.268711565051 0.78177924123 0.456279389944 0.215098736733 0.0914716858084
0 0 0 0 0 0 0 1 0 0
0.101330437476 0.193298293625 0.219825607382 0.366310994377 0.532301759135 0.589062408424 0.356655832385 0.110985599468 0.0852589762599 0.155838466984 0.200925458273 0.29568678008 0.62243640009 0.572762069571 0.342674240479 0.0879458463803 0.101330437476 0.193298293625 0.219825607382 0.366310994377 0.532301759135 0.589062408424 0.356655832385 0.110985599468 0.0852589762599 0.155838466984 0.200925458273 0.29568678008 0.62243640009 0.572762069571 0.342674240479 0.0879458463803 0.0909557980026 0.165197726781 0.201536913417 0.311524956052 0.600836640748 0.585201085667 0.337781905445 0.0959699587698
0 0 0 0 0 0 0 1 0 0
0.0706697228701 0.102862004438 0.246807492019 0.270926153765 0.712062608963 0.538070991918 0.207001480367 0.103475190753 0.0649477142583 0.098995956576 0.291486172036 0.243804792043 0.743075207085 0.490792956335 0.199410589915 0.0936672682458 0.0706697228701 0.102862004438 0.246807492019 0.270926153765 0.712062608963 0.538070991918 0.207001480367 0.103475190753 0.0649477142583 0.098995956576 0.291486172036 0.243804792043 0.743075207085 0.490792956335 0.199410589915 0.0936672682458 0.0670656855517 0.09875255042 0.276635051456 0.252099534072 0.728710680418 0.515013300925 0.199859812817 0.0972990245086
0 0 0 0 0 0 0 1 0 0
0.0918596206768 0.202596814777 0.236222492438 0.330694634437 0.546269780942 0.603660975145 0.33280150647 0.108546047185 0.0737846157939 0.183489184083 0.231820967297 0.32453791474 0.621849878226 0.541945143138 0.337521719225 0.0865968281489 0.0918596206768 0.202596814777 0.236222492438 0.330694634437 0.546269780942 0.603660975145 0.33280150647 0.108546047185 0.0737846157939 0.183489184083 0.231820967297 0.32453791474 0.621849878226 0.541945143138 0.337521719225 0.0865968281489 0.0788253593507 0.187982793047 0.229867679409 0.332226544718 0.595421471959 0.565992703902 0.333700360243 0.094894702813
0 0 0 0 0 0 0 1 0 0
0.12552875367 0.188494945222 0.243489455472 0.333902448469 0.59474796956 0.540863440252 0.345607702027 0.110594464649 0.0967792094991 0.149979476709 0.193204693817 0.304132910553 0.61449138429 0.588315720903 0.323800030612 0.0987600705123 0.12552875367 0.188494945222 0.243489455472 0.333902448469 0.59474796956 0.540863440252 0.345607702027 0.110594464649 0.0967792094991 0.149979476709 0.193204693817 0.304132910553 0.61449138429 0.588315720903 0.323800030612 0.0987600705123 0.106722140513 0.166936388837 0.217603047204 0.30944734815 0.600502406443 0.580352891439 0.330534049898 0.104730618681
0 0 0 0 0 0 0 1 0 0
0.0883619214727 0.182805432682 0.235751037452 0.315348314892 0.540546005446 0.594833137363 0.381619755996 0.110005226125 0.0722973249426 0.168255592594 0.224121707322 0.324286364788 0.585871231399 0.593561037779 0.32750688199 0.0908317300643 0.0883619214727 0.182805432682 0.235751037452 0.315348314892 0.540546005446 0.594833137363 0.381619755996 0.110005226125 0.0722973249426 0.168255592594 0.224121707322 0.324286364788 0.585871231399 0.593561037779 0.32750688199 0.0908317300643 0.0772606025667 0.172066020491 0.223432166657 0.321091259368 0.574222782141 0.590446451764 0.351900377901 0.0959680261705
0 0 0 0 0 0 0 1 0 0
0.115450982066 0.169315395664 0.210595556882 0.338535456083 0.481061647817 0.634646728005 0.386393749227 0.124698500861 0.0950522062184 0.125092596307 0.202496884374 0.294759162355 0.535795985633 0.657449833182 0.343809993687 0.0995290678082 0.115450982066 0.169315395664 0.210595556882 0.338535456083 0.481061647817 0.634646728005 0.386393749227 0.124698500861 0.0950522062184 0.125092596307 0.202496884374 0.294759162355 0.535795985633 0.657449833182 0.343809993687 0.0995290678082 0.100875421533 0.139550556706 0.19796334707 0.311694916984 0.51264558484 0.659717788524 0.352877267816 0.107010098147
0 0 0 0 0 0 0 1 0 0
0.0886486642638 0.133822807002 0.191788835703 0.317024082897 0.617767583659 0.570804365961 0.341534409848 0.113337898711 0.0657005059589 0.125671678697 0.166897967744 0.291324139219 0.601081785322 0.618581161791 0.340521674486 0.0852549693438 0.0886486642638 0.133822807002 0.191788835703 0.317024082897 0.617767583659 0.570804365961 0.341534409848 0.113337898711 0.0657005059589 0.125671678697 0.166897967744 0.291324139219 0.601081785322 0.618581161791 0.340521674486 0.0852549693438 0.0735112787218 0.128914810691 0.175933221294 0.307625924952 0.613502806184 0.593800343097 0.338285632523 0.0947055732169
0 0 0 0 0 0 0 1 0 0
0.108492531628 0.144273096543 0.162791108209 0.300054561918 0.599586016161 0.594564182489 0.352888437011 0.115502174462 0.0858194941415 0.107961666656 0.157670100925 0.303748997446 0.620055132996 0.591077121987 0.346770198405 0.0988224477993 0.108492531628 0.144273096543 0.162791108209 0.300054561918 0.599586016161 0.594564182489 0.352888437011 0.115502174462 0.0858194941415 0.107961666656 0.157670100925 0.303748997446 0.620055132996 0.591077121987 0.346770198405 0.0988224477993 0.0936971544205 0.121788059899 0.161249093785 0.310216016777 0.612345257735 0.586686465285 0.351987558041 0.105310494131
0 0 0 0 0 0 0 1 0 0
0.0983371186596 0.145847214679 0.148676357974 0.313449565728 0.634996334678 0.556658332413 0.349545531902 0.11589731842 0.0768407339712 0.11552561295 0.150242812033 0.299096936103 0.676026526152 0.536298065841 0.340625319007 0.089801821629 0.0983371186596 0.145847214679 0.148676357974 0.313449565728 0.634996334678 0.556658332413 0.349545531902 0.11589731842 0.0768407339712 0.11552561295 0.150242812033 0.299096936103 0.676026526152 0.536298065841 0.340625319007 0.089801821629 0.0837203800618 0.127890856533 0.149508536799 0.302592516899 0.661126969752 0.544897559062 0.34527780923 0.0974720850654
0 0 0 0 0 0 0 1 0 0
0.109600777731 0.14239832815 0.334038916872 0.597154279337 0.588151030203 0.317869816386 0.194764164953 0.120992643983 0.144955807415 0.170131758665 0.316751175193 0.435421958616 0.56407439672 0.470246842724 0.318969320678 0.138079556413 0.109600777731 0.14239832815 0.334038916872 0.597154279337 0.588151030203 0.317869816386 0.194764164953 0.120992643983 0.144955807415 0.170131758665 0.316751175193 0.435421958616 0.56407439672 0.470246842724 0.318969320678 0.138079556413 0.122509748876 0.150159760419 0.321492325646 0.553278820392 0.578491173487 0.376653053963 0.247387508816 0.123484812255
0 0 0 0 0 0 0 1 0 0
0.13096117687 0.1926355045 0.278050577493 0.417011353345 0.505523045299 0.560875109217 0.324499861901 0.138186621112 0.107324365978 0.156510412898 0.300775763907 0.299026469351 0.577473002752 0.543824807474 0.374451934607 0.121112923065 0.13096117687 0.1926355045 0.278050577493 0.417011353345 0.505523045299 0.560875109217 0.324499861901 0.138186621112 0.107324365978 0.156510412898 0.300775763907 0.299026469351 0.577473002752 0.543824807474 0.374451934607 0.121112923065 0.118661253339 0.17414974672 0.280273512487 0.35897657963 0.549546390718 0.549465503702 0.357116178249 0.129338339529
0 0 0 0 0 0 0 1 0 0
0.125744860426 0.178511712347 0.255725591993 0.438715225261 0.552236571825 0.531178241012 0.303530423436 0.123324362632 0.102161554689 0.154075409089 0.254220040381 0.321743128029 0.633401639072 0.517297005245 0.345332362545 0.0981277078944 0.125744860426 0.178511712347 0.255725591993 0.438715225261 0.552236571825 0.531178241012 0.303530423436 0.123324362632 0.102161554689 0.154075409089 0.254220040381 0.321743128029 0.633401639072 0.517297005245 0.345332362545 0.0981277078944 0.110197506793 0.163535112821 0.251520597697 0.368403276135 0.607919318297 0.516195887985 0.338140294817 0.108472301207
0 0 0 0 0 0 0 1 0 0
0.0868422538077 0.111220033113 0.260641480385 0.286912122554 0.710397168698 0.499945233942 0.242802681881 0.127567485118 0.0619966098501 0.0937500938975 0.242592302813 0.249712563109 0.76722602735 0.479790469037 0.195735236319 0.0949368039468 0.0868422538077 0.111220033113 0.260641480385 0.286912122554 0.710397168698 0.499945233942 0.242802681881 0.127567485118 0.0619966098501 0.0937500938975 0.242592302813 0.249712563109 0.76722602735 0.479790469037 0.195735236319 0.0949368039468 0.0704965898795 0.095042331598 0.239176146633 0.260886169122 0.759759312296 0.475790998478 0.214569421705 0.105257019145
0 0 0 0 0 0 0 1 0 0
0.112924709843 0.199959364259 0.337357652333 0.535349687153 0.552976958933 0.408260205343 0.25646106577 0.0928579495576 0.126959446103 0.185664928145 0.363761800172 0.412140775735 0.576516125453 0.438098500927 0.333489575697 0.108216129548 0.112924709843 0.199959364259 0.337357652333 0.535349687153 0.552976958933 0.408260205343 0.25646106577 0.0928579495576 0.126959446103 0.185664928145 0.363761800172 0.412140775735 0.576516125453 0.438098500927 0.333489575697 0.108216129548 0.119440998755 0.197722225507 0.356873343917 0.472224252121 0.570697065139 0.417396329416 0.294020560004 0.0996118255762
0 0 0 0 0 0 0 1 0 0
0.129365922604 0.199068881794 0.354054103968 0.404138680604 0.509500935142 0.517694494915 0.331319860655 0.132597185612 0.100336534163 0.173955260795 0.339638754553 0.340135060575 0.61153173707 0.491673832699 0.318380313267 0.107450253815 0.129365922604 0.199068881794 0.354054103968 0.404138680604 0.509500935142 0.517694494915 0.331319860655 0.132597185612 0.100336534163 0.173955260795 0.339638754553 0.340135060575 0.61153173707 0.491673832699 0.318380313267 0.107450253815 0.110037881304 0.180907435951 0.33439025497 0.359642625016 0.58738913444 0.498937956563 0.326176446433 0.116826152822
0 0 0 0 0 0 0 1 0 0
0.11058487003 0.169302500135 0.386753456955 0.377652224289 0.50585238335 0.526892867471 0.342519508943 0.126830081026 0.0850629382708 0.154330543881 0.390391065931 0.346265572399 0.514797424543 0.544141964577 0.353438682185 0.103031940563 0.11058487003 0.169302500135 0.386753456955 0.377652224289 0.50585238335 0.526892867471 0.342519508943 0.126830081026 0.0850629382708 0.154330543881 0.390391065931 0.346265572399 0.514797424543 0.544141964577 0.353438682185 0.103031940563 0.0945398362003 0.162203010738 0.386882471832 0.358768069172 0.515312835349 0.538240513829 0.344681397818 0.110925169407
0 0 0 0 0 0 0 1 0 0
0.152128370456 0.172235601883 0.261982512886 0.354377693395 0.562021639401 0.578892096988 0.280422315366 0.152814958846 0.136987009022 0.13153822603 0.304748130435 0.363380105165 0.58033376035 0.571891983884 0.243967339877 0.125091778547 0.152128370456 0.172235601883 0.261982512886 0.354377693395 0.562021639401 0.578892096988 0.280422315366 0.152814958846 0.136987009022 0.13153822603 0.304748130435 0.363380105165 0.58033376035 0.571891983884 0.243967339877 0.125091778547 0.144808865377 0.152462610905 0.284290723868 0.362909997925 0.586705517144 0.562091071528 0.253798201687 0.136665280136
0 0 0 0 0 0 0 1 0 0
0.180166000068 0.18587450548 0.267882058834 0.417138590575 0.530473307775 0.53938414549 0.279995228854 0.191026083535 0.140924457082 0.15312970482 0.205540474521 0.340311025179 0.610467517139 0.565338870039 0.283592520983 0.161027218063 0.180166000068 0.18587450548 0.267882058834 0.417138590575 0.530473307775 0.53938414549 0.279995228854 0.191026083535 0.140924457082 0.15312970482 0.205540474521 0.340311025179 0.610467517139 0.565338870039 0.283592520983 0.161027218063 0.154259248745 0.162708372456 0.231556182498 0.367244090017 0.590769422256 0.546934364586 0.28819040777 0.173332518113
0 0 0 0 0 0 0 1 0 0
0.191491436966 0.218043509493 0.245474789719 0.40724900644 0.574122627817 0.423953952731 0.215757569474 0.36575040302 0.189772234363 0.200141402416 0.255772811969 0.316341920594 0.516647912979 0.559441304943 0.23190726645 0.353210073671 0.191491436966 0.218043509493 0.245474789719 0.40724900644 0.574122627817 0.423953952731 0.215757569474 0.36575040302 0.189772234363 0.200141402416 0.255772811969 0.316341920594 0.516647912979 0.559441304943 0.23190726645 0.353210073671 0.184828147561 0.205098074191 0.242999238779 0.361980109889 0.554484442682 0.495233887916 0.222729312148 0.362459871466
0 0 0 0 0 0 0 1 0 0
0.20140482461 0.214608649677 0.245479564622 0.441491277585 0.486123925698 0.501187444436 0.249942829433 0.328979810467 0.185939534456 0.177998522912 0.217853411038 0.330226215907 0.565160293285 0.573101304829 0.211260873153 0.291120479813 0.20140482461 0.214608649677 0.245479564622 0.441491277585 0.486123925698 0.501187444436 0.249942829433 0.328979810467 0.185939534456 0.177998522912 0.217853411038 0.330226215907 0.565160293285 0.573101304829 0.211260873153 0.291120479813 0.197278036844 0.192207531414 0.231356550082 0.379462476129 0.531105964103 0.540657381308 0.232535737391 0.313310068078
0 0 0 0 0 0 0 1 0 0
0.120561356518 0.0910979877948 0.213801399927 0.269575678168 0.727126840468 0.536120145562 0.176416467047 0.107345277543 0.118233384628 0.0822950907768 0.232698374526 0.25309204012 0.783798394883 0.463540260473 0.146607180236 0.101691240118 0.120561356518 0.0910979877948 0.213801399927 0.269575678168 0.727126840468 0.536120145562 0.176416467047 0.107345277543 0.118233384628 0.0822950907768 0.232698374526 0.25309204012 0.783798394883 0.463540260473 0.146607180236 0.101691240118 0.11768025883 0.0839432743741 0.223727074745 0.259037995596 0.771479750708 0.480598056464 0.157553314158 0.104746607589
0 0 0 0 0 0 0 1 0 0
0.220029808926 0.213305638195 0.267659351605 0.334714276397 0.513091583294 0.488062725572 0.248233969493 0.399154245904 0.181327627523 0.176037680529 0.222030830784 0.298588119227 0.582041112332 0.540015422323 0.239370101487 0.331650287941 0.220029808926 0.213305638195 0.267659351605 0.334714276397 0.513091583294 0.488062725572 0.248233969493 0.399154245904 0.181327627523 0.176037680529 0.222030830784 0.298588119227 0.582041112332 0.540015422323 0.239370101487 0.331650287941 0.197194988583 0.189977698564 0.239218241758 0.315931050185 0.561202502927 0.5141737099 0.243641742092 0.35958401401
0 0 0 0 0 0 0 1 0 0
0.217388664628 0.215214777982 0.258330196466 0.382241735304 0.46394364176 0.498725828101 0.265757642508 0.398727042372 0.160968496915 0.157754483666 0.223373920844 0.318187311706 0.582673818701 0.506341004024 0.236631725499 0.382333659479 0.217388664628 0.215214777982 0.258330196466 0.382241735304 0.46394364176 0.498725828101 0.265757642508 0.398727042372 0.160968496915 0.157754483666 0.223373920844 0.318187311706 0.582673818701 0.506341004024 0.236631725499 0.382333659479 0.184168798527 0.177177812106 0.236164260032 0.360035800679 0.535575100342 0.494503055119 0.250692403688 0.393789156992
0 0 0 0 0 0 0 1 0 0
0.201247942362 0.215635641548 0.246389348557 0.489181772318 0.387208954339 0.48738330992 0.248547503435 0.404654039602 0.162913126059 0.146387703298 0.206567784522 0.354194894526 0.500307174111 0.599321998825 0.229427952675 0.348961843985 0.201247942362 0.215635641548 0.246389348557 0.489181772318 0.387208954339 0.48738330992 0.248547503435 0.404654039602 0.162913126059 0.146387703298 0.206567784522 0.354194894526 0.500307174111 0.599321998825 0.229427952675 0.348961843985 0.178133390643 0.175492747421 0.226875263438 0.412160396138 0.462662697747 0.556735612509 0.235457353907 0.369690050994
0 0 0 0 0 0 0 1 0 0
0.20655140727 0.229034622507 0.25719117243 0.442730229012 0.410161085444 0.496942093789 0.298165256273 0.372338854205 0.18798236954 0.182516802848 0.213985217133 0.375136622914 0.4912385093 0.541753595388 0.293318745775 0.352114993517 0.20655140727 0.229034622507 0.25719117243 0.442730229012 0.410161085444 0.496942093789 0.298165256273 0.372338854205 0.18798236954 0.182516802848 0.213985217133 0.375136622914 0.4912385093 0.541753595388 0.293318745775 0.352114993517 0.197647575835 0.198304212299 0.237439745587 0.401992843608 0.459382870611 0.524389880603 0.297193663863 0.359574127997
0 0 0 0 0 0 0 1 0 0
0.215548222812 0.203955383117 0.236965502928 0.417342229037 0.425398270181 0.538968801435 0.291196414045 0.354072832733 0.170067473036 0.166904127656 0.185281657958 0.328987919495 0.495741411657 0.605404051489 0.277771851442 0.333506984324 0.215548222812 0.203955383117 0.236965502928 0.417342229037 0.425398270181 0.538968801435 0.291196414045 0.354072832733 0.170067473036 0.166904127656 0.185281657958 0.328987919495 0.495741411657 0.605404051489 0.277771851442 0.333506984324 0.185889193013 0.1826023507 0.208166679798 0.369100218215 0.466366403688 0.579579861122 0.282424969083 0.345483647525
0 0 0 0 0 0 0 1 0 0
0.208854721386 0.192828740289 0.266927362563 0.451484628738 0.431322910584 0.453724819644 0.285882824075 0.412884416205 0.19034690199 0.148492684789 0.232753650112 0.381798865821 0.461777716512 0.554602911097 0.289664334887 0.370195716498 0.208854721386 0.192828740289 0.266927362563 0.451484628738 0.431322910584 0.453724819644 0.285882824075 0.412884416205 0.19034690199 0.148492684789 0.232753650112 0.381798865821 0.461777716512 0.554602911097 0.289664334887 0.370195716498 0.193646495123 0.165967203499 0.249547809578 0.415297920594 0.456871131151 0.513098084331 0.281460404627 0.385990435346
0 0 0 0 0 0 0 1 0 0
0.210530515698 0.193646726386 0.240680139468 0.479292876163 0.419165912187 0.472229250023 0.281339060666 0.390739124061 0.181968459902 0.167563848375 0.19563814227 0.373344013047 0.514597397511 0.539291017272 0.284711556406 0.35276599658 0.210530515698 0.193646726386 0.240680139468 0.479292876163 0.419165912187 0.472229250023 0.281339060666 0.390739124061 0.181968459902 0.167563848375 0.19563814227 0.373344013047 0.514597397511 0.539291017272 0.284711556406 0.35276599658 0.198222157071 0.175794735871 0.217364753953 0.425441383975 0.471995273436 0.509147769161 0.282834700689 0.373563813725
0 0 0 0 0 0 0 1 0 0
0.188198699711 0.183258683038 0.23680208956 0.443007946822 0.501650725394 0.498463617863 0.24237952774 0.346119877877 0.162089245888 0.139622686356 0.201056668353 0.389420365219 0.550367243673 0.564583371738 0.215907444992 0.306408331694 0.188198699711 0.183258683038 0.23680208956 0.443007946822 0.501650725394 0.498463617863 0.24237952774 0.346119877877 0.162089245888 0.139622686356 0.201056668353 0.389420365219 0.550367243673 0.564583371738 0.215907444992 0.306408331694 0.172545927488 0.155341059791 0.215408921579 0.415502527404 0.539417354869 0.530267945457 0.224856681298 0.323013932266
0 0 0 0 0 0 0 1 0 0
0.218242213414 0.165747767972 0.291856873058 0.43388266131 0.462042946912 0.490509322575 0.263543542426 0.357666236149 0.1806883554 0.120965360827 0.218906396936 0.381128542664 0.526988224125 0.540078195538 0.282369383341 0.332274899354 0.218242213414 0.165747767972 0.291856873058 0.43388266131 0.462042946912 0.490509322575 0.263543542426 0.357666236149 0.1806883554 0.120965360827 0.218906396936 0.381128542664 0.526988224125 0.540078195538 0.282369383341 0.332274899354 0.197650808341 0.13857953276 0.252056106387 0.398941079158 0.496739968271 0.527348780894 0.276039230912 0.343509266054
0 0 0 0 0 0 0 1 0 0
0.209578305948 0.192950605641 0.267255641386 0.379839028878 0.48099087241 0.515805119927 0.252879608829 0.376548129859 0.169208743864 0.14612289974 0.219446688747 0.375013797446 0.535303010626 0.521005527617 0.264700190013 0.364913740642 0.209578305948 0.192950605641 0.267255641386 0.379839028878 0.48099087241 0.515805119927 0.252879608829 0.376548129859 0.169208743864 0.14612289974 0.219446688747 0.375013797446 0.535303010626 0.521005527617 0.264700190013 0.364913740642 0.188688839992 0.162003447254 0.237752140814 0.388829285529 0.514271643519 0.505761734811 0.263912230546 0.374856225552
0 0 0 0 0 0 0 1 0 0
0.128145710241 0.0790314983391 0.267385747535 0.250598825701 0.735923694576 0.512624392749 0.167993873704 0.102217395328 0.13066636098 0.0794646313199 0.25558385519 0.247484466538 0.777626269213 0.463675840556 0.145420841706 0.0958899649498 0.128145710241 0.0790314983391 0.267385747535 0.250598825701 0.735923694576 0.512624392749 0.167993873704 0.102217395328 0.13066636098 0.0794646313199 0.25558385519 0.247484466538 0.777626269213 0.463675840556 0.145420841706 0.0958899649498 0.127856424304 0.07853703577 0.25040692387 0.246854057966 0.774548141164 0.471152092267 0.150505944441 0.096348113525
0 0 0 0 0 0 0 1 0 0
0.201329265642 0.166496106983 0.250223515869 0.394829059842 0.448516864014 0.558129464196 0.274830426114 0.353604495925 0.185967615807 0.134741549312 0.220927585358 0.379339947387 0.501942618382 0.565307563193 0.265598657562 0.335397207881 0.201329265642 0.166496106983 0.250223515869 0.394829059842 0.448516864014 0.558129464196 0.274830426114 0.353604495925 0.185967615807 0.134741549312 0.220927585358 0.379339947387 0.501942618382 0.565307563193 0.265598657562 0.335397207881 0.190235173532 0.145005790437 0.226535150523 0.384837991355 0.479955578121 0.566531993831 0.273123356286 0.342714488644
0 0 0 0 0 0 0 1 0 0
0.197949437828 0.156614620247 0.257734744917 0.394754659252 0.493443324065 0.478282456717 0.316518862654 0.376304169744 0.168657032416 0.125254232886 0.229830208924 0.331282906585 0.545819821382 0.535696091467 0.287449310037 0.354653644793 0.197949437828 0.156614620247 0.257734744917 0.394754659252 0.493443324065 0.478282456717 0.316518862654 0.376304169744 0.168657032416 0.125254232886 0.229830208924 0.331282906585 0.545819821382 0.535696091467 0.287449310037 0.354653644793 0.178590615365 0.133812539945 0.241540764111 0.355268380906 0.526381492414 0.51855619768 0.297100356719 0.362485041605
0 0 0 0 0 0 0 1 0 0
0.167607190619 0.143780010799 0.261418201453 0.374835577395 0.585467847003 0.493835321181 0.222886247801 0.32568350931 0.131538750139 0.109338529855 0.232368825524 0.31755116855 0.624735714413 0.548159624184 0.216818891493 0.279507619254 0.167607190619 0.143780010799 0.261418201453 0.374835577395 0.585467847003 0.493835321181 0.222886247801 0.32568350931 0.131538750139 0.109338529855 0.232368825524 0.31755116855 0.624735714413 0.548159624184 0.216818891493 0.279507619254 0.146875957492 0.126447360876 0.245789122928 0.337435198659 0.610435535262 0.528155930708 0.221484745135 0.295851296455
0 0 0 0 0 0 0 1 0 0
0.19584021749 0.182784202991 0.242667789495 0.325878121904 0.539996759694 0.527114825388 0.26651677598 0.35024934897 0.150868672889 0.140226484345 0.214095793063 0.310501501051 0.634274437227 0.516834756587 0.235505372369 0.300735728034 0.19584021749 0.182784202991 0.242667789495 0.325878121904 0.539996759694 0.527114825388 0.26651677598 0.35024934897 0.150868672889 0.140226484345 0.214095793063 0.310501501051 0.634274437227 0.516834756587 0.235505372369 0.300735728034 0.166470419736 0.156072452888 0.226696267322 0.31914551712 0.600611273186 0.520516043405 0.24677154985 0.319557317787
0 0 0 0 0 0 0 1 0 0
0.174976197238 0.171430424078 0.23664181741 0.343785832459 0.529707677277 0.561157143565 0.247124972839 0.330527724122 0.148451299103 0.13188257733 0.211834999843 0.333376026 0.59336039851 0.557776566516 0.251422012937 0.279555480108 0.174976197238 0.171430424078 0.23664181741 0.343785832459 0.529707677277 0.561157143565 0.247124972839 0.330527724122 0.148451299103 0.13188257733 0.211834999843 0.333376026 0.59336039851 0.557776566516 0.251422012937 0.279555480108 0.158573891008 0.147383650851 0.221348408963 0.337162845711 0.579163161305 0.549686431135 0.24827776739 0.302045506681
0 0 0 0 0 0 0 1 0 0
0.149064391748 0.089720435956 0.243426254414 0.233770429205 0.758251647431 0.48117504937 0.185947157568 0.121547361967 0.133197245958 0.0929543078638 0.233374645275 0.230995611186 0.791186481642 0.449236160083 0.160771110949 0.110266796902 0.149064391748 0.089720435956 0.243426254414 0.233770429205 0.758251647431 0.48117504937 0.185947157568 0.121547361967 0.133197245958 0.0929543078638 0.233374645275 0.230995611186 0.791186481642 0.449236160083 0.160771110949 0.110266796902 0.137538342334 0.0904119615446 0.23516064014 0.232026735817 0.780247923541 0.461720715785 0.168547500894 0.115718828029
0 0 0 0 0 0 0 1 0 0
0.166713226293 0.140150252237 0.261850907431 0.328869624401 0.56471326853 0.549931362465 0.236065928431 0.314310002638 0.148444233432 0.0979146938747 0.242775790638 0.309100381634 0.618273888507 0.567890599425 0.198023144894 0.264420861128 0.166713226293 0.140150252237 0.261850907431 0.328869624401 0.56471326853 0.549931362465 0.236065928431 0.314310002638 0.148444233432 0.0979146938747 0.242775790638 0.309100381634 0.618273888507 0.567890599425 0.198023144894 0.264420861128 0.154978929033 0.111503195948 0.246630474454 0.314472407874 0.605877321522 0.561535784364 0.212616743023 0.27606781293
0 0 0 0 0 0 0 1 0 0
0.175717178247 0.131707377953 0.300232710786 0.29164543268 0.556240939325 0.578675203377 0.240658468924 0.272753420846 0.142220601666 0.0988221563772 0.238825809599 0.230764178896 0.562030020565 0.662867584618 0.213230132115 0.242856624951 0.175717178247 0.131707377953 0.300232710786 0.29164543268 0.556240939325 0.578675203377 0.240658468924 0.272753420846 0.142220601666 0.0988221563772 0.238825809599 0.230764178896 0.562030020565 0.662867584618 0.213230132115 0.242856624951 0.153254103348 0.106469461249 0.252556799569 0.252442131329 0.559466345107 0.642199480585 0.221309704049 0.251524785405
0 0 0 0 0 0 0 1 0 0
0.190789514213 0.148149978486 0.263007826975 0.353792904544 0.53600329295 0.57006370287 0.232404676709 0.284647711473 0.147341268391 0.107742169813 0.228170549697 0.284442952939 0.605132220365 0.593170936584 0.239859986119 0.241128607126 0.190789514213 0.148149978486 0.263007826975 0.353792904544 0.53600329295 0.57006370287 0.232404676709 0.284647711473 0.147341268391 0.107742169813 0.228170549697 0.284442952939 0.605132220365 0.593170936584 0.239859986119 0.241128607126 0.164072279985 0.124362899551 0.236162379304 0.311168986791 0.591677246693 0.57866513333 0.237284113215 0.252539694398
0 0 0 0 0 0 0 1 0 0
0.109042902502 0.0857992456509 0.239230281023 0.244459149641 0.740438329905 0.531245418245 0.156522556234 0.093737965889 0.103528040918 0.0878987134644 0.247936785257 0.243073749927 0.759621721981 0.503649225936 0.146385165116 0.0942440643772 0.109042902502 0.0857992456509 0.239230281023 0.244459149641 0.740438329905 0.531245418245 0.156522556234 0.093737965889 0.103528040918 0.0878987134644 0.247936785257 0.243073749927 0.759621721981 0.503649225936 0.146385165116 0.0942440643772 0.107283974952 0.0861630479147 0.246173985471 0.243224375885 0.758932393551 0.504383239255 0.148104849227 0.0948181067007
0 0 0 0 0 0 0 1 0 0
0.176193517785 0.119637573804 0.17802528925 0.273964319726 0.655430727302 0.522627296093 0.260569490889 0.277971319806 0.148675116114 0.0989857066038 0.173205330936 0.271640680156 0.671514630741 0.541787533127 0.219199483726 0.267945423436 0.176193517785 0.119637573804 0.17802528925 0.273964319726 0.655430727302 0.522627296093 0.260569490889 0.277971319806 0.148675116114 0.0989857066038 0.173205330936 0.271640680156 0.671514630741 0.541787533127 0.219199483726 0.267945423436 0.155601633799 0.105013221306 0.174328449735 0.275245180055 0.668378267373 0.535599940495 0.229533542546 0.26893788441
0 0 0 0 0 0 0 1 0 0
0.216478829572 0.120715249148 0.190025440046 0.314783783662 0.548474643974 0.568112531395 0.268345955761 0.328299270888 0.199223458607 0.0913997153459 0.157588547843 0.289637732278 0.571391931156 0.609988396756 0.246606779141 0.289555612138 0.216478829572 0.120715249148 0.190025440046 0.314783783662 0.548474643974 0.568112531395 0.268345955761 0.328299270888 0.199223458607 0.0913997153459 0.157588547843 0.289637732278 0.571391931156 0.609988396756 0.246606779141 0.289555612138 0.208471094726 0.101638202576 0.169032464675 0.304504500657 0.567588187083 0.586999921806 0.25365122378 0.306349982479
0 0 0 0 0 0 0 1 0 0
0.191043305126 0.12592578759 0.257238134534 0.301647323884 0.533269376152 0.589169892126 0.249696951437 0.310864325447 0.180557923192 0.111782243673 0.209548177976 0.263785201192 0.597651949235 0.601221319944 0.21729632415 0.274841544608 0.191043305126 0.12592578759 0.257238134534 0.301647323884 0.533269376152 0.589169892126 0.249696951437 0.310864325447 0.180557923192 0.111782243673 0.209548177976 0.263785201192 0.597651949235 0.601221319944 0.21729632415 0.274841544608 0.182250255649 0.116674229084 0.225186939709 0.277207748662 0.571377261771 0.602532971362 0.23363233707 0.285511206571
0 0 0 0 0 0 0 1 0 0
0.154476524122 0.133653991322 0.32033876815 0.302593456946 0.607546117115 0.518819561096 0.235817748311 0.264948779421 0.132114865229 0.108796308007 0.321711037163 0.279397424212 0.628041749351 0.545895221025 0.223900675567 0.215820689174 0.154476524122 0.133653991322 0.32033876815 0.302593456946 0.607546117115 0.518819561096 0.235817748311 0.264948779421 0.132114865229 0.108796308007 0.321711037163 0.279397424212 0.628041749351 0.545895221025 0.223900675567 0.215820689174 0.138716760446 0.118690335674 0.316135614513 0.287417369019 0.621054082013 0.539127798854 0.229217407291 0.234972802093
0 0 0 0 0 0 0 1 0 0
0.223362127565 0.125926994753 0.204133052016 0.343192098364 0.563740214873 0.521061047192 0.278352593617 0.328653041242 0.186989259682 0.0943712611033 0.171591040988 0.291727638322 0.613336968366 0.568361973171 0.256586159026 0.27663433485 0.223362127565 0.125926994753 0.204133052016 0.343192098364 0.563740214873 0.521061047192 0.278352593617 0.328653041242 0.186989259682 0.0943712611033 0.171591040988 0.291727638322 0.613336968366 0.568361973171 0.256586159026 0.27663433485 0.195613294621 0.104850269725 0.178631410445 0.309083157071 0.586260955993 0.564518998222 0.272739351921 0.294159683098
0 0 0 0 0 0 0 1 0 0
0.25921820715 0.117502758736 0.172540847459 0.348337182607 0.571032887258 0.535222522691 0.225137320417 0.323514088986 0.201224108452 0.0903704942886 0.133333516164 0.291916664373 0.587633656019 0.601546718575 0.245346552206 0.284573659135 0.25921820715 0.117502758736 0.172540847459 0.348337182607 0.571032887258 0.535222522691 0.225137320417 0.323514088986 0.201224108452 0.0903704942886 0.133333516164 0.291916664373 0.587633656019 0.601546718575 0.245346552206 0.284573659135 0.21463896656 0.0981315437286 0.142548979311 0.310976415583 0.587212633691 0.581884716081 0.2438337804 0.290534609244
0 0 0 0 0 0 0 1 0 0
0.223094594277 0.114421130176 0.185521888275 0.343050514005 0.496108732789 0.593180426482 0.293663161074 0.317505331455 0.210600409035 0.0933491778454 0.15718514958 0.323042080709 0.537577583892 0.6107411862 0.278735835487 0.279610300853 0.223094594277 0.114421130176 0.185521888275 0.343050514005 0.496108732789 0.593180426482 0.293663161074 0.317505331455 0.210600409035 0.0933491778454 0.15718514958 0.323042080709 0.537577583892 0.6107411862 0.278735835487 0.279610300853 0.213624081208 0.0993811124399 0.167044848569 0.327625393776 0.528200040159 0.605771680507 0.280985747087 0.290410338905
0 0 0 0 0 0 0 1 0 0
0.245802088712 0.117146480406 0.171095517435 0.318350698507 0.421932849603 0.653554048581 0.267792743805 0.34404071614 0.216224844689 0.0918675505932 0.162378696513 0.295628657473 0.489726866501 0.649654828052 0.240592152316 0.333580038892 0.245802088712 0.117146480406 0.171095517435 0.318350698507 0.421932849603 0.653554048581 0.267792743805 0.34404071614 0.216224844689 0.0918675505932 0.162378696513 0.295628657473 0.489726866501 0.649654828052 0.240592152316 0.333580038892 0.227672451171 0.100771131244 0.16398743974 0.303016448137 0.472569735242 0.647044403175 0.253099585451 0.336528708062
0 0 0 0 0 0 0 1 0 0
0.242393323201 0.127916709958 0.193938237678 0.377737455028 0.455312750099 0.570025154513 0.309475911189 0.341425614782 0.210664140314 0.0976154349806 0.147156232813 0.279496526087 0.524113861176 0.623581288599 0.30241493256 0.302183433505 0.242393323201 0.127916709958 0.193938237678 0.377737455028 0.455312750099 0.570025154513 0.309475911189 0.341425614782 0.210664140314 0.0976154349806 0.147156232813 0.279496526087 0.524113861176 0.623581288599 0.30241493256 0.302183433505 0.224265014526 0.108116207176 0.160068992171 0.312234942235 0.508385856153 0.602509792059 0.307635630845 0.314307871312
0 0 0 0 0 0 0 1 0 0
0.254322347337 0.119408133707 0.236099873852 0.326193593691 0.486347630844 0.527206717354 0.357318936601 0.341699673614 0.224884486778 0.0998683162077 0.196362159945 0.284259133341 0.573901353718 0.549396256016 0.308764231043 0.305871826068 0.254322347337 0.119408133707 0.236099873852 0.326193593691 0.486347630844 0.527206717354 0.357318936601 0.341699673614 0.224884486778 0.0998683162077 0.196362159945 0.284259133341 0.573901353718 0.549396256016 0.308764231043 0.305871826068 0.235978502606 0.107084332989 0.200414714952 0.303110882614 0.546162845748 0.543870520577 0.326754579378 0.316144388587
0 0 0 0 0 0 0 1 0 0
0.129047942243 0.122839450176 0.243195503525 0.392642776844 0.631758414154 0.449849596601 0.342886147567 0.189447700777 0.0910315176204 0.103214597527 0.220206322799 0.329683251119 0.698477604556 0.469447088366 0.293304802239 0.172043305972 0.129047942243 0.122839450176 0.243195503525 0.392642776844 0.631758414154 0.449849596601 0.342886147567 0.189447700777 0.0910315176204 0.103214597527 0.220206322799 0.329683251119 0.698477604556 0.469447088366 0.293304802239 0.172043305972 0.102873611375 0.109178924661 0.222820071031 0.351302954828 0.679082240859 0.463780043361 0.312355519687 0.17499669488
0 0 0 0 0 0 0 1 0 0
0.13373194127 0.0866175951186 0.27308947611 0.248932515484 0.738441885415 0.503201071929 0.168312795863 0.105976255346 0.117317412472 0.0841803424785 0.263348321246 0.241521825903 0.761331467437 0.494142318734 0.137872461485 0.0930274898629 0.13373194127 0.0866175951186 0.27308947611 0.248932515484 0.738441885415 0.503201071929 0.168312795863 0.105976255346 0.117317412472 0.0841803424785 0.263348321246 0.241521825903 0.761331467437 0.494142318734 0.137872461485 0.0930274898629 0.117425769624 0.0831647134501 0.256552400163 0.235114579986 0.767859755445 0.488970812581 0.1434229626 0.0944754652003
0 0 0 0 0 0 0 1 0 0
0.301919358965 0.119751940135 0.186343499683 0.344018768645 0.468398257833 0.555870221645 0.319188017627 0.333409265937 0.266192430201 0.0887308100669 0.157734788373 0.316108502471 0.518168763019 0.599232464385 0.267709878798 0.311795753826 0.301919358965 0.119751940135 0.186343499683 0.344018768645 0.468398257833 0.555870221645 0.319188017627 0.333409265937 0.266192430201 0.0887308100669 0.157734788373 0.316108502471 0.518168763019 0.599232464385 0.267709878798 0.311795753826 0.279547679326 0.0981411796269 0.16462179091 0.327795489297 0.499065341335 0.583910398706 0.288302056852 0.323319566953
0 0 0 0 0 0 0 1 0 0
0.258314410229 0.116719844622 0.177499705853 0.334626902663 0.433675565409 0.596430527148 0.328774027137 0.352523195136 0.216361175429 0.0893205432451 0.149860893891 0.275646803781 0.499928413685 0.654729776605 0.297290763338 0.28246935625 0.258314410229 0.116719844622 0.177499705853 0.334626902663 0.433675565409 0.596430527148 0.328774027137 0.352523195136 0.216361175429 0.0893205432451 0.149860893891 0.275646803781 0.499928413685 0.654729776605 0.297290763338 0.28246935625 0.231373753157 0.0995148901604 0.158844844373 0.293578727177 0.481892524578 0.631132189139 0.315272058453 0.308541898449
0 0 0 0 0 0 0 1 0 0
0.272669864287 0.12065488767 0.234997030162 0.272364408875 0.539434257278 0.572016167872 0.283564440642 0.28824809029 0.218626856847 0.103541790663 0.200547027719 0.245955213953 0.594409151505 0.587177219853 0.291572013601 0.240114038389 0.272669864287 0.12065488767 0.234997030162 0.272364408875 0.539434257278 0.572016167872 0.283564440642 0.28824809029 0.218626856847 0.103541790663 0.200547027719 0.245955213953 0.594409151505 0.587177219853 0.291572013601 0.240114038389 0.239909680711 0.110026341953 0.207395299976 0.253554108341 0.571788609789 0.586187835543 0.294661575414 0.256224932473
0 0 0 0 0 0 0 1 0 0
0.240647712361 0.125219894718 0.222646116122 0.322248354654 0.537674050307 0.529761260751 0.317500680921 0.320072337526 0.18835808427 0.0940223382381 0.180836297211 0.256492938713 0.638098268842 0.576294251841 0.255490033772 0.229414505301 0.240647712361 0.125219894718 0.222646116122 0.322248354654 0.537674050307 0.529761260751 0.317500680921 0.320072337526 0.18835808427 0.0940223382381 0.180836297211 0.256492938713 0.638098268842 0.576294251841 0.255490033772 0.229414505301 0.208840937686 0.103857771936 0.194478769018 0.275453533412 0.613071677478 0.559052774428 0.276096615592 0.259376478933
0 0 0 0 0 0 0 1 0 0
0.204718951914 0.124441394583 0.226744966948 0.306239874 0.49508220594 0.546737124446 0.366615752773 0.344925159288 0.168992680256 0.0996429795519 0.190522816096 0.272790598303 0.622032064921 0.555401960323 0.292734303081 0.264027455295 0.204718951914 0.124441394583 0.226744966948 0.306239874 0.49508220594 0.546737124446 0.366615752773 0.344925159288 0.168992680256 0.0996429795519 0.190522816096 0.272790598303 0.622032064921 0.555401960323 0.292734303081 0.264027455295 0.183624356206 0.105658123204 0.196429489944 0.286443902966 0.583358999037 0.549169922753 0.323156158312 0.296915096071
