1192 96 10
0.0107920266639 0.0145209281748 1.17863951001 0.0176900230883 0.0275216026268 1.58751268516 0.0233260378115 0.0397620924816 5.26900972149 0.025422454564 0.0479661061847 11.2982505951 0.0175697145851 0.0215162140326 1.60820984705 0.02052734189 0.0387664273603 2.11523167074 0.0222331307489 0.0339975660244 4.97071058681 0.0276573362858 0.0475811963532 11.788257401 0.0249920812688 0.033782574736 2.56347949945 0.0281108232821 0.0368456959132 2.7784198274 0.0288772950536 0.039410234036 6.41916342058 0.0303655894674 0.043954898978 12.883776128 0.016197211195 0.0285087687115 1.85851043671 0.01982656359 0.0339266139482 1.79965607354 0.0217011764984 0.0351431390137 4.39572372541 0.0285750194474 0.0471685484895 12.3483810708 0.0168877255241 0.021254090598 2.0084884893 0.0200687212966 0.0279437122294 2.03370369969 0.0261504411772 0.0368951711688 5.95928322981 0.0340469994677 0.0484206531396 14.3668510287 0.0158693481084 0.0226250547264 1.98614147518 0.0194021504477 0.026047943636 2.14935694326 0.0277085756993 0.0374788205245 5.58318307681 0.0311239886097 0.0483053332679 13.6168333368 0.0187196434696 0.0230910296831 2.10473478278 0.0281284695067 0.0359316618307 3.16812814218 0.0367072500643 0.0475779369747 8.02870028939 0.0323265047351 0.0417783831247 15.4167534962 0.0174811742266 0.0244669511581 2.03974110051 0.0264492115622 0.0348523155203 2.85856190072 0.0308796661548 0.0412550938618 6.89278262384 0.031583088008 0.0450445673699 14.8606227371
1 0 0 0 0 0 0 0 0 0
0.0130898293002 0.0173672761507 1.45567929287 0.0178185032675 0.0272361372011 1.96508644298 0.0239376906796 0.0437135566362 5.70400972194 0.0279529113382 0.0460112861569 10.9877187821 0.0175735968106 0.0262763108064 1.79653648924 0.0207077414647 0.0395775600187 1.85362269544 0.0246153716344 0.0447699969929 5.85782525616 0.0238083059976 0.0420351052848 10.0169501821 0.0235275448555 0.030968412744 2.54792004642 0.0262733224016 0.03432142757 2.30564555707 0.0293517874159 0.039486254946 5.87035748318 0.0318187162691 0.0449388520539 12.7719034974 0.0115318196656 0.0194615747961 1.4397555568 0.0188523604772 0.0337833153815 2.13786358177 0.0206082107468 0.0356275930537 4.55961880922 0.0253759069262 0.0481524071777 9.97866460226 0.0152473836556 0.027462368466 1.74252615618 0.0212997802212 0.0289567725884 2.14273640245 0.0254059150803 0.0330881318022 5.41102307978 0.0333911434783 0.0488646294382 14.0315323929 0.0143447618073 0.0176944474311 1.70206719694 0.022537284415 0.0305522944811 2.22704781232 0.02883176931 0.0397481299979 6.60866767672 0.036332739151 0.0472413206016 15.5257720108 0.0159871264699 0.0199012402515 1.84221106525 0.0298445291649 0.0370392376374 2.68984112764 0.0380501376475 0.048097820544 8.52965618609 0.0304834462974 0.041649034091 13.5280054178 0.0134001628896 0.0211868451517 1.56539380008 0.0185446495565 0.0255054144091 1.96592883343 0.0254119426924 0.036166681383 5.62804374967 0.028796876557 0.0490353624366 12.692183534
1 0 0 0 0 0 0 0 0 0
0.0194321805237 0.024450864569 2.33186166284 0.0284164094411 0.0520969211134 2.69526867523 0.027731082818 0.0466849780924 6.23146339771 0.0243028439536 0.0376245432088 10.2056802646 0.0244650897392 0.0310451534444 2.62230602594 0.0255394050571 0.0356067394883 2.39523483375 0.0278655503024 0.038414307853 6.09623656245 0.0326445359095 0.0451397103123 12.950382832 0.0259499648054 0.0393604169724 2.60797146294 0.0265987139255 0.043504905099 2.85125238299 0.0294507807171 0.0393122696553 6.61954463782 0.0297775846142 0.041232587387 12.2029709497 0.0301149292914 0.0389369571682 3.66943866692 0.0294166120905 0.0374939277328 2.94275232967 0.0300591514178 0.0391966007079 6.88829835364 0.0335192256461 0.0428331211473 14.4944464024 0.0199114388148 0.0259932623881 2.06301267659 0.0217270715334 0.0286525980532 2.09024716737 0.0263616421277 0.0343973363581 5.32475214568 0.0349206692891 0.04865788418 14.4751318496 0.0211564543588 0.0280649629032 2.49389719563 0.0280803848762 0.0358120713261 3.35297746353 0.0304335180795 0.0390933696013 6.63221007205 0.0324185265276 0.0452951532847 13.9889040639 0.0262263424007 0.034942614113 3.01638093563 0.0288981949777 0.0374819200019 2.71052412747 0.0303777152935 0.0390705891699 7.24888852667 0.033995808447 0.0437448021172 13.3205913346 0.0225940737027 0.0294889745531 2.87318338818 0.0323196067401 0.0512876861955 3.2645767909 0.0306529265498 0.0435143172565 6.96924267111 0.0300957805882 0.0388790282326 12.4534264503
1 0 0 0 0 0 0 0 0 0
0.0152121888281 0.0217909225093 1.76168061204 0.0246260097172 0.0332566573543 2.08570705569 0.0281216242794 0.0435689411738 6.71928346847 0.0293215508129 0.0445981459848 12.2891292259 0.0190100085802 0.0248454377753 1.89638677827 0.0231626803575 0.0340614730052 2.27012723822 0.0254486472389 0.0360474519254 5.7553094525 0.0292071248332 0.0473207566274 11.7935878473 0.0189706309029 0.0250133255166 1.91603372119 0.0236078962347 0.034585409715 2.24485799017 0.0269477613919 0.0408346226963 6.04536063083 0.0297628120387 0.045212231457 13.5260598337 0.0177312099175 0.0355651633249 2.05459035163 0.0307848613904 0.0825199370438 3.42930302238 0.0206143935626 0.0349002698908 5.19301957237 0.0184292176698 0.0265652724642 8.30402599432 0.0123478060293 0.0192721502664 1.43949848795 0.0175588067389 0.0225538465194 1.90314808525 0.0216163428878 0.0314909436562 4.47145896423 0.0325849376671 0.0511612218871 12.9821887244 0.013370591984 0.0173401837846 1.59091437424 0.0268209290494 0.0358232911753 2.34849264769 0.027724241519 0.0367011121 5.90009451716 0.0338695081901 0.0475799325091 13.7560265442 0.0123451996103 0.0154761042221 1.41954629426 0.0286335833713 0.0358128586334 2.38183488796 0.0361829349989 0.0473670369349 8.57870149745 0.0320004559923 0.0427901574897 12.650796382 0.0138539255385 0.0189622205273 1.64767561016 0.025466115553 0.0349753849391 2.49841424153 0.0315127102465 0.0482397837632 7.2211343827 0.0267887395122 0.0421198780249 11.685046419
1 0 0 0 0 0 0 0 0 0
0.0187313693448 0.0253896832459 1.82354032846 0.0315572823444 0.0461236884476 2.53634736387 0.0259029363497 0.0385024588291 5.96028522807 0.0274511447294 0.0435787333748 11.5433216997 0.0187312598609 0.0255178915802 1.6851689634 0.0160676403394 0.025452711674 1.67872472262 0.0199890150711 0.0334769883445 4.51575545642 0.0242733069298 0.0494795728403 10.6201088019 0.023539923863 0.0296375886631 1.93382301358 0.0194687175186 0.0276990015335 2.18435878861 0.0289723131637 0.0412282314831 6.44403296608 0.0319172138408 0.0455197150781 13.3645177497 0.0188040672527 0.0246668510684 1.98829891443 0.0258735745041 0.0365908349952 2.9500807149 0.0302404175929 0.0404342413682 6.53271491058 0.0321518723682 0.0450447966918 13.4402841348 0.0127672171983 0.0187007916125 1.44839101071 0.0184773258076 0.0268043853374 1.90739589508 0.0260066491683 0.037789883835 5.67911918841 0.0321376625576 0.0484999691045 13.0519905635 0.0144745281 0.0189425442685 1.72408272857 0.0208695460899 0.0296101950904 2.2218652803 0.0268678636105 0.03619801305 5.61892831228 0.03341245598 0.048675346427 13.5082146561 0.0141661777654 0.0203495221325 1.6936023807 0.0302983490728 0.0418423060976 2.29442470616 0.0319218805291 0.0414128871082 7.29448100247 0.0310976081296 0.0439840802606 12.8846072088 0.0138428642587 0.0206877630278 1.50700059245 0.0253550421881 0.0378134115959 2.1797214193 0.0295149717567 0.0433708721114 6.72327085068 0.0278269822343 0.0439130692457 11.5686794162
1 0 0 0 0 0 0 0 0 0
0.0150599235348 0.0202915256926 1.52314488598 0.0173240578248 0.023642512224 1.66208039923 0.0245726895634 0.0333152345435 5.08312645412 0.0317493376571 0.0503557574383 12.8901281736 0.0150855997241 0.0183818969842 1.41528879132 0.0188705172177 0.0236228831579 1.93436319043 0.0272604429837 0.0424417020725 5.98162174587 0.0275487923278 0.0469968148875 11.362863018 0.0127090083226 0.0404569083079 1.42081623081 0.00955959199237 0.0289372702013 0.788547043297 0.0178270364929 0.0652308484276 3.57834174146 0.0105855382212 0.0242336497645 4.85773609729 0.0254886722257 0.0394310389914 2.94501413737 0.0278848779543 0.0465129473096 3.17110774241 0.0271782946215 0.0390233632371 5.82714114698 0.0297303428501 0.0405259992884 12.200358764 0.0137893133173 0.0197911803907 1.47037544613 0.0201253573943 0.0315838665085 1.81702133584 0.0244899221622 0.0362330329199 5.37468839676 0.0290402020195 0.0482660246429 12.9177246454 0.0130684662923 0.0176469862096 1.51555574708 0.0241044333284 0.0322088782002 2.13538403266 0.0233870661116 0.0324316573269 5.0580914696 0.0356191295281 0.0497013092941 15.1467387756 0.0186056164786 0.0243002892244 2.4347794085 0.031752560354 0.0385488418889 2.84129675201 0.0294654438366 0.0405401421484 6.67049807888 0.0340013797011 0.0446368956558 14.1848604971 0.0122221033123 0.0176235324859 1.39030352589 0.0268006532787 0.0343998168677 2.11137620203 0.0263268986556 0.0376333703516 6.04852165315 0.03008396895 0.0474522283657 13.0075855303
1 0 0 0 0 0 0 0 0 0
0.018816583445 0.0249652818149 2.07589404457 0.0251292436975 0.0334724334673 2.42187638534 0.0292717342559 0.0402675087014 6.52819762511 0.0297221086889 0.0456801918805 12.4857135956 0.018062668631 0.022930378431 1.76700019216 0.0231673358528 0.0316673133331 2.08358772659 0.0231843839606 0.0333242977057 5.28416535629 0.0281738363972 0.0489481733813 12.2953763371 0.0223231166486 0.0284233487523 2.19208983306 0.0240660626932 0.0301942927576 2.25242258076 0.0258340264321 0.0353279211885 5.70955685091 0.0325461655642 0.0477431336238 13.7860328492 0.0245274229248 0.0338174262971 3.02590943872 0.0245274229248 0.0309952728233 2.39852377864 0.0249137957774 0.033165933028 5.79820826006 0.0341060270354 0.0475106562977 14.2827056442 0.0179446553451 0.0234607946113 2.04761335099 0.023291430203 0.0322702834518 2.19043815883 0.0254034704458 0.0345034862002 5.74102894785 0.0348639018133 0.0483750248981 14.2632543684 0.0150179735574 0.0214838438582 1.79250066918 0.0196790049599 0.0270748532398 2.28630924084 0.0263840612067 0.0352029732827 5.02242126028 0.0352796074426 0.049143238224 13.3572774039 0.0159980438215 0.0227036278083 2.01125566894 0.0262204360398 0.0347902540716 2.3562614063 0.0319371398252 0.044039660622 6.75667479101 0.0327712857196 0.0439560389022 13.5012245222 0.0179308084635 0.0259946794404 2.18531728149 0.0270408159894 0.037555990768 2.66793077542 0.0307772409135 0.0411095428227 6.3190481344 0.0288122063416 0.0443485301599 13.5674040653
1 0 0 0 0 0 0 0 0 0
0.022349096385 0.029224619584 2.29864795951 0.0225660779033 0.0294052990151 1.98131248899 0.0288446713608 0.044254057556 6.61663006614 0.0299976949052 0.0438683830138 12.4899986472 0.0211201260034 0.0284428717831 2.16949142428 0.0251837451838 0.0369195285565 2.78705460235 0.0273352285085 0.0415226508948 6.05118025282 0.0311989709443 0.043911911011 12.0946139291 0.0217546345014 0.0283288626736 1.91600450655 0.0289396514009 0.0399089635492 3.21080442698 0.0280842850097 0.0420149385353 6.16548844905 0.0314344489355 0.0430336303986 13.2847968716 0.0211988240717 0.0321849487699 2.55694657724 0.0350297641672 0.0457172715973 3.5991143765 0.0274204248554 0.044369715789 6.03592102128 0.0303117332 0.0395918240465 13.4463882564 0.0150748144678 0.0218665676224 1.60129981013 0.0187157654198 0.0334139470312 2.13546564058 0.0204382430073 0.0318273882271 3.64500820042 0.0318104135804 0.0492765903214 11.5959497095 0.014871515812 0.018644610063 1.65655754393 0.0231478376553 0.0308879458644 2.55272801852 0.0248537457589 0.0321173822632 4.80341156995 0.0342303498735 0.0499214236634 13.6248948344 0.0151310706652 0.020322868732 1.72415337069 0.0252379248161 0.0341595001181 2.39453574861 0.03470037624 0.047735812843 7.65886875583 0.0297363512301 0.0424147003878 12.513804388 0.0183427299851 0.0249472981825 2.14067061822 0.0235247568419 0.0356207591692 2.39360288146 0.0251262605535 0.0377978857135 5.48764510005 0.0297349636305 0.0463270084133 13.1401395297
1 0 0 0 0 0 0 0 0 0
0.0181868697329 0.0236570711505 1.88491868393 0.0202633233638 0.0291079351438 2.02454229015 0.0226823086405 0.0354347779164 4.52253843596 0.0311826053885 0.0485158671406 13.0923981522 0.0197275452439 0.026155276909 2.12687597161 0.0244950353445 0.03226995436 2.50293230282 0.0270852423102 0.0364822101447 6.20751905306 0.0350574918605 0.0472915995571 13.8586005338 0.0193901658426 0.025546216654 2.16741036462 0.027892007789 0.0358932356428 2.59250246194 0.030691362053 0.0401707655105 7.1705463147 0.0325531053473 0.0451802472871 13.3400612119 0.0221908530126 0.0307542934436 2.75767579625 0.031806889318 0.0431147445152 3.22460832839 0.0321671704233 0.0435586110606 6.93032533509 0.0302042166004 0.0410302339088 12.3344157995 0.0172771242855 0.0241742840341 1.85170873897 0.0225481113557 0.034807330402 2.23056093464 0.0242264795556 0.0341596650868 5.37719137572 0.0313879959213 0.0479677538493 12.4499616475 0.0110989966066 0.0173868457174 1.22958849706 0.01859145427 0.0248952191535 1.69627971593 0.0245861616066 0.0342829320351 4.92576294716 0.0300460251386 0.0501513213554 12.2311196586 0.017008436108 0.0221831041841 2.02094620047 0.0254171011501 0.031755078981 2.01685107139 0.0308294839059 0.0420696870954 7.31162619247 0.0327473822015 0.045533342279 13.636779833 0.0226447584082 0.0314333981121 2.34076752306 0.0241705920529 0.0349238139629 2.10669077075 0.0240551749563 0.0371366809229 5.29287412264 0.0285573637813 0.0457365715123 11.4905676854
1 0 0 0 0 0 0 0 0 0
0.00952857023869 0.0197174513763 1.05197414436 0.0115942043464 0.0242176967628 1.34182925302 0.0141350698548 0.0323907266692 3.51963239385 0.0169915063697 0.0506451879741 7.24138021461 0.0206705174086 0.0256255753839 1.6477620539 0.0266117439691 0.037860451204 2.706043035 0.02809473313 0.0392609538599 6.3803926641 0.0322435316463 0.0451674785056 12.7272212727 0.0235858672043 0.0305363383406 2.38101893108 0.0264913725845 0.0340633716377 2.71429748941 0.0285817561626 0.0381154538086 5.69218061419 0.031875103142 0.0456480460937 13.2285950841 0.0219620873939 0.0341413040089 2.68207634741 0.0257386368135 0.0361895919624 2.80408794404 0.0270739880152 0.0357762242938 5.4445830982 0.0325945265291 0.0455470681769 14.2230661218 0.017201321773 0.0218887577697 2.01436531289 0.026335123042 0.0378266684298 2.54549384483 0.0255355467036 0.0377575888366 5.07012191931 0.030348764789 0.0462927849201 11.7693254237 0.0157104684418 0.0208943764011 1.93182470254 0.0206914204342 0.0272479399585 2.26957418695 0.0247147638452 0.0333879559265 5.32109227443 0.0345510899337 0.0498116375315 13.5483599999 0.0180656033335 0.0220658171529 2.00332976932 0.0276096956606 0.0338269490788 2.37517752232 0.0333271465834 0.0421766240963 6.68514952176 0.0333268548631 0.0451232626325 13.5863872754 0.0179303212531 0.0223530386634 1.8132081228 0.022632205887 0.0350223987701 2.22374581099 0.0248858859142 0.0357013424066 5.96963524522 0.0280884973837 0.0475865918116 11.3687359804
1 0 0 0 0 0 0 0 0 0
0.0172435266268 0.0210874142182 1.6622362123 0.020026343604 0.0289619906664 1.7591378749 0.0254050419671 0.0386961057309 5.68714528683 0.0277039368716 0.0475790925568 11.8443647594 0.0241155461134 0.0297481519854 2.13182817587 0.0259224746406 0.0355201667084 2.67390673404 0.0281583531014 0.0385145839877 6.19926046027 0.0322814731114 0.0453319759781 13.009885396 0.0250289376421 0.0319179743317 2.54835741767 0.0272303355991 0.0381360878189 2.56989283247 0.0297450432451 0.0433074678961 6.17742621659 0.0303170783867 0.0421578625603 12.5479683552 0.0213773299715 0.0365866342773 2.556972344 0.0258521700277 0.0393025826726 2.49051432336 0.0258930972981 0.04177394562 5.7871777355 0.0279899030248 0.0417131078185 11.1184268525 0.0166404043864 0.0229324966517 1.86129896366 0.0186655282268 0.0276970596392 1.88709063521 0.0233304470571 0.0337772725148 5.30304979286 0.0322586943816 0.0493925564759 12.7210255576 0.0148263308463 0.0198075015125 1.66233196799 0.0205691881108 0.0261892479683 1.943844579 0.0230643579794 0.0319008984481 5.04018593819 0.0335938382467 0.050546475803 13.0002523762 0.0165421971315 0.0214402825873 1.98583786158 0.0226326160442 0.0295612481795 1.93551448497 0.0340693997906 0.0461183459065 6.9908875521 0.030774680311 0.0440056148794 13.8040893068 0.021319043014 0.0260552216084 2.1544578547 0.0257822725091 0.0374687768068 2.31114569867 0.0301161055135 0.0425248108925 6.10883544948 0.0278951843445 0.043685897158 12.1931631314
1 0 0 0 0 0 0 0 0 0
0.0265189121955 0.0330281010236 2.16851974308 0.0297118247006 0.0372902195217 3.56541896407 0.0351829604775 0.0451219259406 7.44110206891 0.0321508550865 0.0411701985754 13.6630047616 0.0301436979132 0.0354037450671 2.65074826055 0.0288789273714 0.0381620627703 2.88262285988 0.031549898333 0.0407067460807 7.05773709952 0.0339731420537 0.0427477683064 14.2392083499 0.0224743182229 0.0304618852558 2.07898105003 0.01820974171 0.0273972074891 2.07258418526 0.022164005638 0.0323257994012 5.09772129673 0.0259073023158 0.0489001157666 11.3032600474 0.020665277256 0.0285939847602 2.46530299765 0.0192445394447 0.0325627997788 1.93252631839 0.0220101650098 0.0479800611262 4.6063804883 0.0225057785116 0.0413860148724 9.93386335596 0.0163210212862 0.0220280716241 1.85371344001 0.0230997202229 0.0385948068711 2.17048725571 0.0231182809161 0.034447507546 4.75086203516 0.0319902445977 0.0473953497829 12.436305357 0.0203014163403 0.0268438475788 2.32932040115 0.0211562128178 0.0285076814555 2.34534783511 0.0262424394153 0.0353223592672 5.7156637479 0.0334082956618 0.0482304757133 13.3508524828 0.0184036014723 0.024061458675 1.90463743179 0.0246283490292 0.0308528987482 2.74362514597 0.0318315803347 0.042253843514 7.24343877155 0.0343263252952 0.0453643681627 14.2492590812 0.023611553007 0.0295811242364 2.32901923286 0.0257765091567 0.0312075320774 2.298574537 0.038127861687 0.046890981656 8.02263789826 0.033455338 0.0420917214027 14.4104893711
1 0 0 0 0 0 0 0 0 0
0.0136271006982 0.0187065009713 1.56386388037 0.0211596689233 0.0323680303069 2.15448570712 0.0222737439363 0.0343756294423 4.5866965095 0.0276650687541 0.0489191756106 10.2870914693 0.0265229745566 0.0342536049077 2.79337710756 0.0253943373414 0.0307880280635 2.20084256959 0.0289299297777 0.0383940179199 6.61398049745 0.032871558892 0.0454530526699 13.7129421644 0.0249815839523 0.034230789769 2.21730035079 0.025277223999 0.034230789769 2.81597144551 0.0284306751334 0.038955554602 6.10684630392 0.0291944546188 0.0445947556564 11.5188753224 0.0228761888746 0.0317836221039 2.81660885991 0.0278507965625 0.0568165944307 2.61166903615 0.0252918872203 0.0397556554567 5.49931338188 0.023594354069 0.038516181713 10.3363239318 0.0203946786904 0.0259437525454 2.43208857454 0.0215054327492 0.0271802385684 2.11274678264 0.0255043888637 0.0369662725325 6.00847621305 0.0328443804326 0.0479282772971 12.7273902569 0.0175861236658 0.0240852164555 2.01655912266 0.0220080680558 0.0316711430734 2.43969345653 0.0260206171225 0.0387365865062 5.43953094128 0.0289459463228 0.0467683870519 11.2454620262 0.0165633846038 0.0204446295591 1.59676496623 0.0248450769057 0.0312565517556 2.4464197189 0.0286172559183 0.0366718479065 6.40159175586 0.0343768359701 0.0480851577155 14.2859192208 0.021021680337 0.0262495155937 1.89561780248 0.0265948700077 0.0347067734089 2.55560078981 0.0320798220524 0.0424774137682 6.6890577232 0.0323147225646 0.0442466800537 12.6350076351
1 0 0 0 0 0 0 0 0 0
0.0146912690194 0.0244744828832 1.5889083684 0.0167694053051 0.0328306361752 1.67116792971 0.0230011975113 0.0413177203433 4.78494299602 0.0252984229774 0.0453932107273 10.1612205467 0.0269535442544 0.0347388353509 2.80691710861 0.0264775434729 0.0336990715431 2.51239162504 0.0299138479395 0.0403867185759 5.99539146468 0.0310293009463 0.0439566410064 13.1822466436 0.0263736395341 0.0339464569989 2.5624388411 0.0226440339434 0.0311457843093 2.37262855657 0.0291978969764 0.041310856035 5.75010196907 0.0293706440266 0.0441524004376 12.1078981498 0.0224924922984 0.028392841713 2.50859154406 0.02869731776 0.0369642595914 2.52798162363 0.02961545058 0.043136572143 6.57092809743 0.0299253561327 0.0431256758589 12.3951083636 0.0125801438362 0.0232756616118 1.50290881209 0.0154077908453 0.025109419938 1.59596148152 0.0172605441344 0.0293403058628 3.95554136413 0.0251747144429 0.0510866588357 10.1838572637 0.0134355861086 0.021559313258 1.58182092534 0.0183900660053 0.0270447949899 1.92502187651 0.0195238571637 0.0315601054253 3.81718777443 0.0275334898423 0.0503612646292 9.90121841847 0.0142847339962 0.018809600628 1.72618327637 0.0273679483105 0.0371738271716 2.97175867996 0.0261866436767 0.0331292610016 5.79995453316 0.0297309370183 0.0484833552932 12.2955514117 0.0191741372717 0.0240533016743 2.03697785547 0.0294412954447 0.0374066937221 2.64247692721 0.0329801526888 0.04276294672 7.17155436879 0.0324907291756 0.0438696137786 13.8343374869
1 0 0 0 0 0 0 0 0 0
0.0119029260568 0.0193212992708 1.36331237148 0.013341283146 0.0229858124843 1.40865188842 0.0175260676704 0.0332370510878 3.75100594654 0.024452070516 0.0505526211542 9.82147742847 0.0220530738551 0.0336174000462 2.8754686108 0.0250279753136 0.0499447264138 2.35971123838 0.0225600582034 0.0346157629393 4.786771809 0.0284232432825 0.0427557772797 11.4760057349 0.0145275276145 0.0237858491133 1.7126001218 0.0215055257825 0.0376844424981 2.33164824499 0.0233457667087 0.0348869526677 5.37897179209 0.0305702776884 0.0472050065566 12.1038362508 0.0178284814188 0.0451463705446 2.32866028897 0.0182786357669 0.0372769063008 1.5894594647 0.023864662905 0.0485922134068 5.56367465829 0.0210328696074 0.0359970985257 8.85441756577 0.018377216749 0.0277792707857 2.35831003898 0.0221276691468 0.0329606580642 2.32890308268 0.0240847122968 0.0362469130114 5.35487053056 0.0307707571725 0.0470307427706 12.1616942753 0.0113240992744 0.0188850556193 1.41891508336 0.0202708636049 0.0303010497361 2.137559845 0.0253566000612 0.0394364296523 5.67539994538 0.0304607381924 0.0472971204859 11.6943102122 0.0155022224435 0.0220292828432 1.8448784577 0.0245755820501 0.0329550387987 2.17316081533 0.0326272568606 0.0497479497669 7.34113279363 0.0272884709777 0.0412683063516 11.6711217352 0.0139310565507 0.0199777614758 1.46194572646 0.0214310011697 0.0351130211437 1.88857301094 0.0218663471486 0.0407994989781 5.20526664549 0.0267842225101 0.0457495898675 10.8015506741
0 1 0 0 0 0 0 0 0 0
0.0166653804486 0.02512543726 2.16093539325 0.0234495176224 0.039511488372 2.2252908447 0.0256067045249 0.039616102394 5.47780595131 0.02904710116 0.0447269965588 12.2878690114 0.0157384866658 0.0212646833175 1.89347144784 0.0254237092294 0.036042314585 2.41321722766 0.0265526450583 0.0386129705308 6.57543267009 0.0321762297021 0.0463685646469 13.0171269854 0.0163829377168 0.0240696268289 2.00716708304 0.0203288835577 0.0285968677858 2.12972138254 0.0259463394061 0.0365264134391 5.55451941813 0.0332833269204 0.0481348309258 14.1182553032 0.0159140335681 0.0257088576659 2.04638383978 0.0290584220062 0.0437849938559 2.83888625813 0.0247357431741 0.0328348988287 5.03375928507 0.0327101488359 0.0463653996039 14.5954813899 0.0123639402228 0.0180815999711 1.42292794936 0.0205742067532 0.0349652529843 2.33826171796 0.0226288384008 0.0311041396126 4.96240864649 0.0313536487478 0.049620774776 12.879162185 0.0109281419721 0.0180408471167 1.25114575378 0.0168533332131 0.0287662285685 1.71757093205 0.0199849582433 0.0308136317555 4.68056609393 0.0306257302092 0.0506986327692 12.533493373 0.0128482688357 0.0183594016789 1.52108637249 0.0223623588164 0.033652635582 1.95750277674 0.0237113549982 0.0359098347628 5.54115895778 0.0305279114897 0.0481786606194 13.0924921276 0.0171585990504 0.0263843546162 1.90546511399 0.0227526250732 0.0357270033093 2.39494239097 0.0272452819105 0.0431135343099 5.45412763048 0.0274591373519 0.043712774786 10.7523634802
0 1 0 0 0 0 0 0 0 0
0.0186560584261 0.0248825118692 2.21087099712 0.0215163694434 0.0291291258601 2.02196239635 0.0243912927735 0.0340791786178 5.50388917689 0.0346012250671 0.0488439022103 13.8671720326 0.0159181854365 0.020218549993 1.56000814045 0.0230852640343 0.0345030685702 2.12480509517 0.0247335060341 0.0345675028616 5.30751293182 0.0341085425299 0.0483328493899 14.1666656849 0.0167598964273 0.0228539989962 1.8160273925 0.0197280272193 0.0295764604277 1.99846701073 0.025185424926 0.0365032759945 5.49274234407 0.0316786590925 0.0481437502048 12.9113689454 0.0251842887452 0.0357617176899 3.21872174721 0.029223468977 0.0445868830218 2.90972445948 0.0296038054056 0.0395853830505 6.34275454458 0.0302029701832 0.0416306306735 12.4719787607 0.0201328283011 0.0277134491887 2.33854857982 0.0233854857982 0.0306724732004 2.31331244406 0.0296221069188 0.0407477197668 6.33484816637 0.0341061701349 0.045562441009 13.6050811862 0.0175439176184 0.0224215936359 1.98201854107 0.0239100649399 0.0309331160461 2.41228867254 0.0294170792891 0.0392629020973 6.2930041949 0.0332742235 0.0468790913992 12.866464899 0.017906825423 0.023646420929 1.9985296231 0.0262917674861 0.0356845181666 2.71267087508 0.0297959855074 0.0372016903562 6.71540212995 0.035955768508 0.0467248963163 13.5900014371 0.0191358001247 0.0246485090573 2.42075811743 0.0280287860747 0.0424049192392 3.15919355793 0.0291675625287 0.0405815993771 6.04054886151 0.0312247029005 0.0436860239175 12.9315528955
0 1 0 0 0 0 0 0 0 0
0.0144184880795 0.0191231911429 1.68488533191 0.0245429111502 0.0323804680143 2.1136622045 0.0289122257889 0.040556518629 6.18536422674 0.0319410436801 0.0464474966452 12.4874180821 0.0155007763759 0.0209129794657 1.63416203774 0.0215172502253 0.0311608771033 2.00392449307 0.0245803390892 0.0381859879789 5.96043679236 0.0304166177942 0.0474569304883 12.5938585421 0.0153027785997 0.0239860756809 1.86959303858 0.0189478971026 0.0377455617017 1.89604954385 0.0284711463773 0.0535913719411 6.2554565038 0.0263809152479 0.0373804888462 10.677089624 0.017319768728 0.024607164499 2.17906426469 0.0258795173841 0.0461344387201 2.95901016694 0.0309923277252 0.050912298323 7.16720525242 0.0256236150196 0.0367943953327 10.6711285998 0.0158714795413 0.0213042983006 1.66722787746 0.0220370315331 0.0343668359248 2.41142927022 0.0270608166296 0.0417895354566 5.3746971229 0.0308879704275 0.0452925221433 11.9867001027 0.0145288850607 0.0198024999605 1.58812220676 0.0214545712036 0.0313982660432 2.39468503397 0.0306835411978 0.0423111717388 6.321493878 0.0327948445541 0.045757165314 13.1405215808 0.016066176171 0.0202428452596 1.8626671292 0.0307921254935 0.0393282867471 2.60723760056 0.0389720211698 0.0500522286587 8.54319119129 0.0292781655351 0.0398948468579 12.9753814143 0.0182060532806 0.0242128067011 1.97895565194 0.0225416343408 0.0323606862087 2.1974282913 0.0319864641783 0.0464602473281 7.1816857236 0.0288333076373 0.0429614657266 12.3868905762
0 1 0 0 0 0 0 0 0 0
0.0123043834559 0.0166080651083 1.43311988065 0.0220617954093 0.0350253458047 2.18465583809 0.0271161760222 0.0468909590453 5.91406589296 0.0283813937148 0.0431080229701 11.8416238449 0.0118269060867 0.0164165220312 1.34303050462 0.0179855271667 0.0299223947816 1.85494136509 0.0225367975595 0.0359773046395 5.16335368085 0.0260564589323 0.0489380949006 10.6795196753 0.0194618795944 0.048068680625 2.52716929688 0.022628858183 0.0418219019001 2.24718361999 0.024933566075 0.0424083412946 5.70200505661 0.027078551563 0.0376720353015 11.2684282852 0.020190351544 0.0352314542887 2.64098137139 0.0231216165992 0.0386589687156 2.67793805366 0.0300097316372 0.0566422400735 6.76626086794 0.0221487398351 0.0323298444892 9.35004061409 0.0147854581124 0.0184169294361 1.50637441489 0.0257233092856 0.0353014172818 2.35575179582 0.023972686857 0.033502648678 4.9844708647 0.0305267682632 0.0487419353444 11.8477255186 0.0159192323953 0.0220102844756 2.00224687331 0.0233128849601 0.0319843579907 2.26234930882 0.0263959540482 0.0372637139794 5.70535774516 0.0314892531873 0.0475623611574 13.2652242108 0.0146495112561 0.0182139312206 1.78450365136 0.0251778413236 0.0350020047096 2.57895791563 0.0313267380227 0.0484465815417 7.49587826597 0.0299590554369 0.0420782104627 12.7402452836 0.0120957698938 0.016347908099 1.25136513914 0.024404279459 0.043679616125 2.29302974494 0.0225859396036 0.0292065763138 4.85941540711 0.0323364300678 0.0486110125623 13.8197210175
0 1 0 0 0 0 0 0 0 0
0.0181222714852 0.0308703310677 1.8609026711 0.0196865446896 0.0272388862399 1.72361273561 0.0253345844052 0.0442303206649 6.05947247535 0.0261516525611 0.0439481414205 10.6686760782 0.016226061765 0.0218373450644 1.82352449616 0.0249749101147 0.0404391905567 2.20882988133 0.0255727271333 0.0377489280056 5.07408225082 0.0289424111105 0.0457470557245 11.5858658888 0.0122951006268 0.0176953287788 1.4425233749 0.0207601247604 0.0357609103595 2.18564147712 0.0217446851551 0.0391274846672 5.2178413047 0.0289198529417 0.0465817717842 11.7316908239 0.0174026193999 0.0354707563856 2.00756617398 0.0206511083546 0.039447384086 1.77506717879 0.0241319258462 0.0510128453524 5.71664781299 0.0204701211128 0.0364501093333 8.60524724088 0.0115987421787 0.0151058153016 1.36554958789 0.0191289333218 0.0275283180744 1.65046055129 0.0226655217583 0.0347737737812 5.44306306181 0.031188478242 0.0498219547374 12.5006792521 0.0151578598954 0.0217398412332 1.80807112578 0.0239815621214 0.0334387438179 2.38003610936 0.0239544541255 0.034754312531 5.74739774912 0.0328367775697 0.0482877794306 13.1339231973 0.0159672743953 0.0203552710791 1.98906317253 0.0291118380136 0.0421634390326 2.85799466172 0.0308032910661 0.0440971130355 6.40568439216 0.0298701782224 0.042579719132 13.5932482418 0.0150657356604 0.0263081373081 1.48981425822 0.01944079707 0.0349058610577 1.81794386394 0.0226783447747 0.0471841696226 5.00158544412 0.0230219965303 0.0417435755014 9.98678332244
0 1 0 0 0 0 0 0 0 0
0.0170523262241 0.0226350732156 2.04332494216 0.0220252375291 0.0303901489449 1.87961276306 0.0241504466529 0.0314683734378 4.64962828038 0.0366157264736 0.0497918381548 15.6117411093 0.0143726263953 0.0206061297823 1.77553492255 0.0213590275128 0.0302986264032 2.07224653628 0.0244476994852 0.0391953724993 5.60675177482 0.0312809797022 0.0472180038124 12.745973364 0.0160835146448 0.0222963223507 2.03242496928 0.0272531257172 0.0365651809815 2.58319921656 0.0268227944422 0.0346414717291 5.36584104879 0.0355487378368 0.0476946845981 14.9715399711 0.0230860129446 0.0405916119161 2.88082977959 0.0326395604917 0.0580547199427 3.63542533286 0.0245670100746 0.0416050197174 5.68309017727 0.0245470218428 0.034832989164 11.2723053555 0.0160856867391 0.0205571822324 1.88060602317 0.0243435793966 0.0306088498614 2.09673055757 0.0275233685743 0.0368911396727 5.96694465667 0.0356551719431 0.0480934546728 14.4093775395 0.0114986533782 0.0159225040056 1.33429777942 0.0192448159254 0.026470488708 2.1695639332 0.0265090376236 0.0350310515376 5.4683354432 0.0367552575441 0.0498115731618 14.5783204751 0.0128287398059 0.0162912233837 1.56596628357 0.0219068052179 0.0288658453046 2.18590259263 0.0297984239082 0.0396876515345 6.28402136841 0.033385780035 0.0476562508497 14.2513682146 0.0157800882874 0.021634585035 2.02178996641 0.0215635935349 0.0300254463427 2.29471942752 0.0290634160733 0.0402768111749 6.12169740136 0.0352263123918 0.0466886163823 13.973013661
0 1 0 0 0 0 0 0 0 0
0.0125905651162 0.0250948937611 1.46786043806 0.0180201597538 0.0341061880765 1.48240399512 0.0214393741762 0.0388442957917 4.12676121934 0.0234843819082 0.0461589345204 9.83352222692 0.0122955900081 0.017481546273 1.36335094244 0.0160992617372 0.0310326951619 1.72160374483 0.0211102488293 0.0383806989468 4.76387948581 0.0281958224106 0.0477455353958 11.4972612324 0.0115408767823 0.0186301480528 1.21367372684 0.0174709715716 0.0346793111042 1.95607597835 0.0192887670976 0.0322970662518 4.17426015388 0.0268450829502 0.0492376769386 10.7374629786 0.0232072223253 0.0515157588616 2.70896994742 0.0216180066978 0.0466697886527 2.26901429759 0.0206570799078 0.050195735069 4.96513572664 0.0165932808167 0.0294200913966 7.33376270462 0.0150402667063 0.0197579126469 1.57592895804 0.0214015043684 0.0364141094755 2.33470956746 0.0243446307852 0.0373695676271 5.33308914205 0.0277542829379 0.0469680787424 11.5390482644 0.0126595984407 0.0173088786975 1.31606057149 0.0194537458664 0.0325990997287 1.70464670123 0.0189575321067 0.0320101061167 4.10472909173 0.0255024922256 0.0498039681181 9.50569655117 0.0144593899934 0.0194561557755 1.5248839447 0.0198885862361 0.0280598208071 2.25616343862 0.0281267083915 0.0418274296601 6.09934330997 0.0299713792583 0.0465520409008 12.3320314656 0.0105385193202 0.0160679764431 1.23766331551 0.0125318516567 0.0199662750386 1.34304850871 0.0218934446668 0.0564318354692 5.04646787887 0.0220655354138 0.0397095618793 9.36947892119
0 1 0 0 0 0 0 0 0 0
0.0142947252106 0.0212218933725 1.55862764255 0.0174505517085 0.0253573668022 1.97063832421 0.0232324602102 0.0379216950591 4.92295088018 0.0281511411854 0.0483835163345 11.4872084522 0.0151844354146 0.0229583018273 1.69170992067 0.0168645942433 0.0287265014478 1.8807277889 0.0232709626984 0.0359571224791 4.90516846157 0.0304213757925 0.0484644418908 12.3523176889 0.0157371079833 0.0292512676402 2.0009130336 0.0219199779411 0.0454865521961 2.23094500644 0.0203880862815 0.0328669502814 4.75965855551 0.0287053125897 0.045409793554 12.1277967903 0.0212138696668 0.0402917396149 2.73851772062 0.0211367283225 0.0349407146638 2.12331550028 0.0244189487063 0.0453152051868 5.56244741845 0.0211367283225 0.0399440855093 9.03325141083 0.0224963983087 0.0350424603609 2.46369138195 0.0175718136043 0.0237873458385 1.85651247237 0.0250349596199 0.0415421539314 5.10855630178 0.0268800248449 0.0449667109555 10.2884647489 0.019775023843 0.0344622966666 2.25308583513 0.0226000272491 0.0327083466159 2.17663600068 0.0274924541469 0.0410586728327 5.63131954043 0.0294732314125 0.0438868382146 12.2822119738 0.0172251511084 0.0274001377089 2.04390561384 0.021318711719 0.0273798627628 2.0887508003 0.0272383650679 0.0371157288735 6.06399184109 0.0328519737763 0.0476386246714 14.5746856008 0.0163869375071 0.024012484948 2.05382390426 0.0247818850005 0.0468943299891 2.85722037938 0.0245992991004 0.0385950349953 5.55443150778 0.0271156804037 0.0435272967868 12.4010164372
0 1 0 0 0 0 0 0 0 0
0.0117839153036 0.0166010025866 1.3737139621 0.0167772821536 0.0285692229012 1.84668480921 0.021984066911 0.0360459067085 4.41279349315 0.0270922436317 0.049099197469 10.49737003 0.0191745805428 0.0245539135469 2.2429681749 0.0195306072373 0.0274348779085 1.68222613118 0.0259301356612 0.0334277807521 5.2786347596 0.0303894214173 0.0493531485444 12.2409606688 0.0152484383092 0.0219125299355 2.02440360155 0.0216496183177 0.030391653867 2.15766010553 0.0238104968239 0.0381471523213 4.58870525166 0.0313426599085 0.0474845008396 11.9748310425 0.0247326696366 0.0414253146782 3.0247472126 0.0317520850969 0.0597752731214 3.45617518448 0.020946944989 0.035957005348 4.54507493282 0.0227940946087 0.0369404280336 9.47811143526 0.0154601175347 0.0190609954507 1.51628075821 0.0205694441274 0.029002657319 1.88296303308 0.0239194889775 0.0371477127957 5.34451081841 0.0291804212728 0.0483966747884 12.2458666028 0.0128336240012 0.0218715772593 1.43971986829 0.0146655918172 0.0256029903397 1.39983024649 0.021039752317 0.0365119479054 4.84206812261 0.0269131831031 0.0488190783595 10.1024160691 0.012264628054 0.0159969273291 1.42654254272 0.0192908048035 0.0279242047386 1.84437139676 0.0264581745733 0.0428421857957 5.89576323408 0.0296221948761 0.0464401891457 12.5473381244 0.015379171934 0.0296900901426 1.83620054286 0.0220026501121 0.0359275517215 2.19005759621 0.0191510498757 0.0360333726332 4.28252120336 0.0267283052049 0.046271576106 11.6523313016
0 1 0 0 0 0 0 0 0 0
0.0153087572003 0.0204881489861 1.71337595054 0.02140391053 0.0290467626365 1.91536649693 0.0251579299351 0.0390814429824 5.59538421763 0.0289401660036 0.0474740357817 11.3788007801 0.0130631514163 0.0193359103309 1.44332808033 0.0167168297817 0.0255514464127 1.76990686574 0.0205621530805 0.0325592107658 4.18852119979 0.0259761516668 0.0504637867184 10.4279984581 0.012117973786 0.0164807593719 1.20732580156 0.021657338144 0.0362246041319 2.26485377218 0.0225653010817 0.0401469847963 4.49619684328 0.0278355670914 0.0461679953617 10.6132881111 0.0166195951102 0.0283839826981 2.20545384607 0.0268039934606 0.0521538533986 3.3847736001 0.0205558075938 0.0415122312634 4.50041610434 0.0206345983061 0.0398783391902 9.34432538206 0.0215344322889 0.0276330423474 2.21317813121 0.0230278048471 0.0310316205859 2.44166413262 0.0265049439544 0.0361633663034 6.17427917534 0.030957613131 0.0474109921405 13.4941144357 0.0119775064119 0.0174992941781 1.29453504248 0.0206147280719 0.0460707133486 1.7284925385 0.0149721174428 0.026835451528 3.65260370089 0.022927770442 0.0486423542058 8.70430687672 0.0126499012842 0.0158387086412 1.48438685382 0.0262485451647 0.0352838105238 2.06549169406 0.0284371084887 0.0375980611438 6.38996363091 0.0293583125638 0.0474612814652 12.5550270246 0.0155027425732 0.0261716476645 1.71319024675 0.0211276314715 0.032064599298 1.9361279165 0.0274537408438 0.0514075059157 6.33715767003 0.0249004228057 0.0397956540805 11.1743219698
0 1 0 0 0 0 0 0 0 0
0.0143063739521 0.021742810319 1.67772697688 0.0216175177384 0.0308545016419 2.15836698505 0.0262423792494 0.0407132548768 5.47292424963 0.0304555773566 0.046350418056 12.5169489452 0.0176883599764 0.0227433061095 2.2213977161 0.023249249066 0.0301040091529 2.26132963244 0.0257123069409 0.0348223081296 5.52591498952 0.0364021321254 0.0486945523301 14.7097348098 0.0170242205361 0.0258446423274 1.87299273071 0.0225613154184 0.0315307721944 2.10667690455 0.0247925857281 0.0372230169724 5.56638675287 0.0301724746548 0.0471701500317 12.5006955646 0.0164768252384 0.0226255828726 1.86191803057 0.0210864132516 0.0269209338756 2.06236155189 0.0293525760945 0.0374724104644 6.43528791014 0.0354913757926 0.0481879563798 14.205744974 0.0141750125307 0.0178247105817 1.5903299557 0.022678796483 0.0303568157647 2.47405052542 0.0290142084049 0.0375721324495 6.21899895674 0.0348135126482 0.0481423578801 13.9844421205 0.0106964250754 0.0142217325671 1.29283018838 0.0236500630221 0.0336825000411 1.71571210997 0.0242019441259 0.0355505934898 5.19967206032 0.0299472262771 0.0486540734475 11.6997331639 0.0145569287736 0.0192007622533 1.77380458556 0.0279835548424 0.0335818525824 2.13601522504 0.0321393250496 0.0408479914606 7.16777185262 0.0322650044817 0.046097197384 13.2322482552 0.0132211996955 0.0182383356507 1.56011338983 0.0161303366589 0.022745612828 1.48561110174 0.0263739848607 0.0390330702312 5.58921099583 0.0303567259556 0.0485699814694 12.6813537509
0 0 1 0 0 0 0 0 0 0
0.0138088440605 0.019709066584 1.78014970557 0.0220367974704 0.0328514068287 2.06305453796 0.0243484263213 0.0373770705973 4.94494545452 0.0307500457194 0.047622421936 12.0474443828 0.0157111854933 0.0198155738284 1.82727918237 0.0195295115106 0.026051920828 1.90478419442 0.0289317266838 0.0387548066891 5.91793762957 0.0344612680692 0.0481095201216 13.9088655521 0.0171580439704 0.0249514605468 1.97982164464 0.020505954989 0.0276075485842 2.35646163424 0.023957617602 0.0345730012941 5.08366836086 0.033130369455 0.0488825029385 13.4482631578 0.0143346695437 0.0186869096573 1.85818774861 0.0236571401727 0.0315860099683 2.15924871187 0.027926738705 0.0390240922949 6.09680800693 0.0340599206334 0.0472776299009 13.9540933898 0.0157929615151 0.0199436522019 1.91512164627 0.0244353639078 0.0312056646112 2.23342441297 0.0264632513279 0.0347486683981 5.7987258451 0.0358556813552 0.0488539933257 14.4413000695 0.0153518722536 0.0247042427443 1.76206887725 0.0255321108453 0.036106100107 2.02699056658 0.0261362479933 0.0359719181077 6.00698206452 0.0334435329182 0.0469878321327 14.2201811397 0.0152158266594 0.0195409818747 1.54344922811 0.0285503038186 0.0377857143789 2.7613754835 0.0316474934312 0.0399237779875 6.62356831547 0.0332371745033 0.0456505943335 15.4344922811 0.0133174338442 0.0208091578238 1.50418393764 0.0294649755246 0.0387706363287 2.71341183132 0.0296366478866 0.0420546356595 6.80923859657 0.0314558522492 0.0443282226177 12.8622887961
0 0 1 0 0 0 0 0 0 0
0.0227996835899 0.0284389133524 2.48524887394 0.0222161450702 0.0284114095613 2.44773568339 0.0282647470374 0.0404110044349 5.9285233228 0.0333658989282 0.0459653532253 12.8107545729 0.015917404501 0.0200593508338 1.64515455916 0.0233241609578 0.0322304469693 2.55319441325 0.0299889661116 0.0397100762643 5.78250719357 0.0338823498494 0.0467396345508 14.3523711054 0.018685058493 0.0298387206833 2.17552182807 0.0229546713877 0.0308020093043 2.02696570931 0.0227052906438 0.0314555322817 4.80639411607 0.0288198870395 0.0487732490252 11.8448745358 0.0275750579001 0.0386891370112 3.36675970189 0.0298980736983 0.0417700804169 2.99572245635 0.0264035991508 0.036178986359 5.52559191906 0.0294248667764 0.0432258784893 12.276493211 0.0149742958225 0.0241161387532 1.69760680071 0.0201505956129 0.0303448983801 1.43763638712 0.0240527210617 0.039574496943 5.35671418617 0.0269098263661 0.0466332786503 11.079939027 0.0204956606994 0.0294176702447 2.04097850261 0.0229383465183 0.029291126036 2.50470713855 0.0229668904773 0.032269148348 4.97930821746 0.0329571750725 0.0488041188734 12.331746689 0.0214573463164 0.0268404944341 2.15219768776 0.0279204024359 0.036189267007 2.60461161612 0.0368652378611 0.0465489624336 8.15300632366 0.0310226693732 0.0417422038771 13.2169497642 0.018865248606 0.0244428552804 1.93748697619 0.021163176727 0.0288719743118 2.41004477526 0.0326810653968 0.0433177734731 7.24120157909 0.034302136709 0.0451370974396 13.5262720605
0 0 1 0 0 0 0 0 0 0
0.0175707161972 0.0245431665091 2.03350745645 0.0242859611807 0.0340460496084 2.18876594009 0.0298113537321 0.0426581772605 5.41959700183 0.0304458099625 0.0445319903068 12.992484326 0.015524643688 0.0202481401899 1.68725917926 0.0225277763696 0.031269177382 2.41236229762 0.0275425530936 0.0360589680304 5.69585256696 0.0341015376819 0.0483349933982 14.725171019 0.0181206909974 0.0253646282408 2.01427557253 0.0228066468537 0.0328571058124 2.10774543668 0.0227889266642 0.0323771118601 4.5406011074 0.0333625101789 0.0487694187488 13.728853647 0.0239637901796 0.0310115880912 2.99754246981 0.0252877564879 0.0323980990765 2.59042283002 0.0289515382772 0.0364780274488 5.94360804001 0.034522421488 0.0465314005283 13.8569623739 0.0122555354587 0.0181148964048 1.59631444182 0.0159033109959 0.0241849337239 1.52203846934 0.0208858684249 0.0367226758899 4.71989113776 0.0280886969251 0.0493030500915 9.95793204342 0.0124984115595 0.0162539888715 1.45845166959 0.0195674839868 0.0276206607853 1.78639832859 0.0247266973797 0.0330837192994 5.48942988198 0.0319383607344 0.0502920851415 13.52051198 0.0178769576668 0.0226510834893 2.27896654277 0.0280133769624 0.0362700583343 2.19257660559 0.033915452657 0.0421157810582 7.78247238562 0.0343256017056 0.044601756104 14.7243008927 0.0169490508178 0.023472437638 2.03198408495 0.0237540313207 0.0323756358057 2.2760757769 0.0255536019865 0.0332202573323 5.87732845689 0.0324610250076 0.0488032407131 12.8797992779
0 0 1 0 0 0 0 0 0 0
0.0197506604925 0.0258130087164 2.4423079142 0.0271503569855 0.0368832829685 2.59737508336 0.029662952674 0.0403585255724 6.43178224809 0.0317207577606 0.0448581770111 13.5398122963 0.0172441492428 0.0204561405392 1.68987348512 0.0219205286985 0.0283684243869 2.29169163666 0.0286142245917 0.0390821129057 6.21697105541 0.0329605040612 0.0475796412529 13.9055862962 0.0153066443162 0.0211370660035 1.80617134775 0.0198720063326 0.026208755742 2.0686796637 0.02282156953 0.0326592058568 4.87188947962 0.0315961096221 0.050165753862 12.1115249828 0.0250313520196 0.0360976707439 2.6844488182 0.0247291626592 0.0345746219877 2.41247839384 0.0290961132055 0.0400226646424 6.14330419577 0.0310499567809 0.0436785406248 13.0369526565 0.0140701261012 0.0229325753769 1.87969816516 0.0185908259578 0.0274455322338 1.67538314721 0.0235581340354 0.0394948646318 4.43023075303 0.0282101978841 0.0472612008305 10.2444654407 0.018396116395 0.0239438838393 2.06405684523 0.0239338298822 0.0343873549796 2.48882464112 0.0300059540818 0.0374001657586 5.51987929389 0.0329431023926 0.046850797165 13.52334805 0.0184837633618 0.0228858479849 2.37063569023 0.0289041400222 0.0356215349443 2.8097801352 0.0387187619784 0.0474918697 7.94725834898 0.0323900041193 0.0419217192168 15.0202286433 0.0229841799535 0.0309886933614 2.70463572127 0.023574148209 0.0320583254999 2.51658333983 0.0283154513625 0.0376809028803 5.97857550406 0.0326572011425 0.0461128970557 12.7506889218
0 0 1 0 0 0 0 0 0 0
0.0170233001894 0.022865135453 1.91410636868 0.0209205263059 0.0277334099673 1.96282169513 0.0262753585786 0.0361366150902 5.02351174572 0.0318950067937 0.0485532362085 13.5388011443 0.0155777044279 0.0195670010504 1.6148715834 0.0198378344691 0.0284855447004 1.90358521571 0.0224475770011 0.0320913520264 4.93501905049 0.0304496644212 0.0501979327179 12.2838026761 0.015047015167 0.0248846242022 1.85815739278 0.0192184649163 0.029246477824 1.93637207558 0.0251774584578 0.0378063869305 5.05023999358 0.0282019799121 0.0474343930104 12.2260722741 0.0205190737827 0.0267105451677 2.36090048935 0.0242527405416 0.0323071571609 2.75438390424 0.0306911751004 0.0428623086158 6.87734952611 0.0310361049333 0.0444459579338 13.7405374084 0.00988554805362 0.0159702834086 1.12848300051 0.0168653216981 0.0289617054954 1.64420250443 0.0228734884308 0.0357009934768 4.78068978769 0.0298451867752 0.0492198667347 12.4138675427 0.0191511937843 0.0263337332829 2.20845632548 0.0245009404048 0.0311073719831 2.24217321594 0.0289276161581 0.0377317966524 6.16778101657 0.0336719346114 0.0469702626025 12.9944895853 0.0171871110819 0.020939054855 2.03419524179 0.0327226078856 0.0414525385776 2.86258302817 0.0386856161042 0.0503811493456 8.80827683656 0.0299097023182 0.0390514274445 13.8851728493 0.0169214446847 0.024060395385 2.02753358168 0.0217850934563 0.0285906396647 2.12784633759 0.0289029294956 0.0440754193706 6.2527482823 0.0286043343382 0.0448656908044 11.1681534919
0 0 1 0 0 0 0 0 0 0
0.0132092489698 0.0207632588459 1.50318713036 0.0223033088374 0.0377360353357 2.3605181933 0.0204409956823 0.0316955409108 4.90368349847 0.0277140204346 0.0486543868149 10.9471650837 0.0169980287946 0.0223989831209 1.87778825111 0.0220395283168 0.0317030347947 2.26611997106 0.0260380652567 0.0344751608694 5.64358805702 0.0307429278299 0.0486041743047 13.2594843854 0.0124525029319 0.0172813581121 1.47943273342 0.0180365849641 0.0246574530434 1.90452097812 0.0254286122297 0.0387325883672 5.51858139248 0.03030760523 0.0485444929969 12.4490128806 0.0219297147453 0.0313393394337 2.52968756707 0.0267262402801 0.0406683141513 2.56997838156 0.0298601370629 0.0444297062368 6.26574479896 0.0295178181414 0.0410769697297 12.7088740571 0.011968000453 0.0172717613598 1.40424538648 0.0163828628423 0.0271024685192 2.03057074352 0.0225420035423 0.0361362078449 4.72216108687 0.0286256840464 0.0492159139868 11.6781088865 0.0184097328281 0.0250256176138 2.1424567124 0.0211466036783 0.026626784902 1.91794777547 0.031069993526 0.0417795461817 6.64716430837 0.0316985237139 0.0461167137919 12.7392785354 0.0177552534965 0.0219270571371 2.27496573596 0.0269284071006 0.0345051871935 2.5267546171 0.0367618341782 0.0478823552084 8.72905489593 0.031739584313 0.0420609369688 14.9619336555 0.0132081090983 0.0191401174161 1.51172812316 0.0154174655293 0.0231577351069 1.69424017616 0.024011117315 0.0415070839511 5.42033143348 0.0237986111208 0.047394705683 9.94450541385
0 0 1 0 0 0 0 0 0 0
0.0127475027238 0.0222177467062 1.48906766192 0.0158706408911 0.03230456983 1.68745067306 0.0168784259219 0.031360581258 3.86017938641 0.024491139608 0.0495710291376 9.92393087044 0.0181859224521 0.0232196826487 1.89086024691 0.0255042011049 0.0342198006728 2.21469407729 0.0297292516341 0.0474691360032 6.62116230911 0.026144550487 0.0421798149805 10.6755389847 0.0173162621306 0.0246000423898 1.93858245379 0.0203869704061 0.0300103579594 1.99556466921 0.0240411981888 0.0384600641133 5.1221854521 0.0291717286167 0.0470882060597 11.3347123508 0.0196634384116 0.0246786994036 2.18803947031 0.0294823056969 0.0387934321769 2.86276529816 0.0317160037527 0.0427412833617 7.1211061721 0.0320912455646 0.0434906028419 13.4328273385 0.0128781892776 0.0168085416666 1.48064743032 0.0180661942273 0.0282275524937 2.02814264292 0.0217511259476 0.0330416652151 4.47399558904 0.0300720640886 0.0501759610277 11.2150434431 0.0138424256493 0.0286387403314 1.62152368136 0.0161844210842 0.0240104172309 1.43662930492 0.0168480366834 0.0258224044814 3.58620004831 0.0248929462145 0.0514855868267 9.89369808321 0.0137330299343 0.0202878183373 1.62759463914 0.0221880670207 0.0286638388972 1.80053857954 0.027719028819 0.0372083033216 6.21504106951 0.0306943467562 0.0482990849499 13.8624176231 0.0154123311118 0.0268798361846 1.81350452177 0.0184004361233 0.0258396385624 1.83709482449 0.0232420024817 0.0348481354289 4.85204603243 0.0276792885274 0.0487707282426 11.7066877259
0 0 1 0 0 0 0 0 0 0
0.0177778970465 0.0221726702915 1.80953594938 0.0207083196366 0.0275288209175 2.03664370011 0.0259705917877 0.0401086259414 6.18010292608 0.0301833526778 0.0470809576542 12.1685798053 0.0201857803379 0.0250363793558 1.83612075156 0.0210172312443 0.0279135212101 1.90540832709 0.0255093940213 0.0365433121951 5.98213254162 0.0315258468664 0.0481054078129 13.0953517753 0.0201439440467 0.0270702151914 2.30353276503 0.0183823063544 0.0261020726728 1.88418640132 0.0248591597748 0.0372047806839 5.56081531564 0.0313265137456 0.0478299779781 12.2012558427 0.0186676638976 0.027474832575 2.12479299411 0.024112399201 0.0323696099743 2.53763556108 0.0294885324244 0.0412289398351 6.82530486854 0.0326983279488 0.0450860962453 13.2513489158 0.012496651143 0.0187335715358 1.38333576085 0.0133256163929 0.020132562874 1.28385993086 0.0161928619829 0.0337276879465 3.69944616071 0.0238016647392 0.050749267666 9.63361241097 0.0274697133738 0.0348369042555 2.72312610008 0.0300132053528 0.0359675982277 2.8661975239 0.0321935156305 0.0396108557501 6.99399630771 0.0340827925193 0.0438406647031 13.6680900224 0.0160908645939 0.0204153635696 1.83575621118 0.0294222713398 0.0376174498175 2.49695098124 0.0369720331091 0.0460388383893 7.88728259439 0.0328088786987 0.0426096363878 14.6537962861 0.0184080739634 0.0240403858766 1.76225330427 0.0271950095713 0.0368358216222 2.24191988413 0.0268980911384 0.0372646873615 6.20248746316 0.0311435692432 0.0464252129165 12.6923948045
0 0 1 0 0 0 0 0 0 0
0.0144913296289 0.0194225475694 1.68036417914 0.0167091331199 0.0254633792999 1.684144526 0.0247173469596 0.039262865205 5.71243371874 0.0282391910421 0.0480223102466 11.5565203501 0.0260730459057 0.040654437483 3.22592961427 0.0285123121547 0.0469742043442 2.99826476437 0.0262939486702 0.0373268845604 5.23483387702 0.0291356801961 0.0408882059723 11.9727318387 0.0222369058769 0.0303508214741 2.40573832863 0.0210332844492 0.0301036974235 2.17103215023 0.0283199822662 0.044106249022 6.06719980706 0.0297444945322 0.043632573741 11.3200595276 0.0223277563737 0.0311172332739 2.5378754139 0.0217730295073 0.0292782143353 2.21197337988 0.0305955880587 0.0425962121043 6.71730058339 0.0318043403418 0.0443817606703 12.9875427602 0.0177198953095 0.027364611503 2.06901647873 0.0167433683579 0.0271710828263 1.93474402288 0.0241246522305 0.0373354146297 5.04934581569 0.029550112442 0.0475877538278 11.4711400347 0.0156484724166 0.0228330537977 1.81628628874 0.0211786121832 0.0311146176966 2.21737334874 0.0211634249448 0.0346942670021 4.10269643981 0.0286686091749 0.0485707762641 11.1711861824 0.0176113118421 0.0223490253489 1.98391427901 0.0300801206263 0.0380159655545 2.9666254798 0.0345199322967 0.0456557762307 7.34856134498 0.0332501567578 0.0424845294071 14.6878340763 0.0150680082567 0.0218172689387 1.859879567 0.0179191605341 0.0266787147324 1.73058312652 0.0236888120372 0.0372387106055 5.2324026192 0.0279064817384 0.0484049149222 11.3283573627
0 0 1 0 0 0 0 0 0 0
0.0240207439348 0.0296776782223 2.42100191377 0.0298022410423 0.039118220846 3.15401315418 0.0277895898522 0.0402904610729 5.51898334367 0.0338974681601 0.0438055106111 14.1233715055 0.0243988916627 0.033241149052 2.90299959147 0.0228131439032 0.0292771447885 2.27050247378 0.0292300696382 0.0426385855777 6.96093593869 0.0294624725764 0.0439747375658 12.0066333197 0.0206539946387 0.0451716175578 2.42112456122 0.0214688715137 0.0406385330832 1.84757660691 0.0237795356348 0.0363881154722 5.4118943169 0.0248694153958 0.0418126118359 10.8927099191 0.021411061952 0.0282473891889 2.53218579616 0.0308494076287 0.0427365785057 2.96914624415 0.02531557255 0.0357177860074 5.87057622192 0.0307765808874 0.0451593919369 13.1612486937 0.0159096335358 0.0261669144539 1.7922755651 0.0194692241223 0.0347997052043 2.12110359793 0.01870875593 0.0350203430514 3.7409838047 0.0237559262005 0.0473939805885 9.67600904538 0.0252214858408 0.0321609160746 2.72126557756 0.0262170708082 0.032614308185 2.38110738036 0.0308971142522 0.0414273597763 7.15717963057 0.0334074066839 0.0441669090953 14.1621961613 0.0169052019668 0.0212072917501 2.01535858457 0.0288102737743 0.0362014709942 2.90313679651 0.0366791126675 0.0449445220886 8.05256847284 0.0331471213614 0.0433964787635 15.0156969984 0.0206647684057 0.0265876151746 2.32619285003 0.0259903530039 0.0333021986797 2.77624225269 0.0299404199578 0.0394903391649 6.76245092049 0.033547432557 0.0458214519659 13.5183589326
0 0 1 0 0 0 0 0 0 0
0.0139645767708 0.0209459339509 1.48696882282 0.0153437942297 0.0255104625411 1.58717759132 0.022278458971 0.0368339491762 4.57836046364 0.0249336656232 0.0488117246709 11.0358946981 0.0235105166946 0.0363708693446 2.55491908696 0.0295607755363 0.0448999709968 3.06294353861 0.0247622863775 0.0370577770525 5.00477196504 0.0274070149161 0.0425673822333 11.3984903667 0.0298743035171 0.0619094282602 3.39004970633 0.0287382384538 0.0510099822658 3.20228339725 0.021005312332 0.0348507700853 4.77082412527 0.0211118757602 0.0334267310097 8.7903034275 0.0182909698278 0.0272683137986 2.13268546855 0.0196906924413 0.0279183580055 2.26225438615 0.026709965453 0.0391477393177 5.57940014458 0.0339369683207 0.0467580118665 13.8875181464 0.0159062397039 0.022031561805 1.8735993696 0.0215202066582 0.026532832584 1.78293131923 0.0299716249734 0.0400759565878 6.21359386659 0.0362299593047 0.0472540681317 14.849687811 0.0148754692695 0.0212583882345 1.80205479941 0.0204985974794 0.0290384827949 1.89888162445 0.0263217210974 0.036178767115 5.9322769109 0.030360588919 0.0485293066096 13.2781852742 0.016409594906 0.0264882771159 2.08259703223 0.0257943926656 0.0407873704099 2.87133407923 0.0330534049384 0.0474151652236 7.49483761224 0.0269881941453 0.0402234357603 11.6613012749 0.0157456803012 0.0265944078578 1.91996374569 0.018964372853 0.0280777134877 2.04475627471 0.0224365228014 0.0338292024543 4.81061615577 0.0308128438462 0.0488591929219 12.271606317
0 0 0 1 0 0 0 0 0 0
0.0130989350937 0.0238233820773 1.71870931021 0.019438034304 0.0288631695405 1.90593712981 0.0243359707383 0.0415156462541 4.79281770897 0.0269832453109 0.0460586568302 10.913909304 0.0204320147595 0.0267277233371 2.03451708019 0.0259900280481 0.0389112320585 2.64558274572 0.0278457146656 0.0475341485714 6.01239669103 0.0273005823178 0.0405767408666 10.9139170029 0.0261010016272 0.0390077038006 2.93162966777 0.0288777039279 0.0431122011465 2.454541727 0.02880879993 0.0432894732542 6.33740050504 0.0266310993391 0.0393862714045 12.1278783673 0.0184488103674 0.0275988941986 2.38983652551 0.0256888259092 0.0389245545085 2.4890560076 0.0274767250171 0.0373076563787 6.29069031671 0.0333197060775 0.0454774421547 13.167327269 0.0145643744729 0.0195941768654 1.70437662941 0.0238251492222 0.0324564516428 2.49252767191 0.0301526279315 0.0418295753096 6.64588534001 0.0352615492452 0.0458163550817 14.0598757066 0.0151391976017 0.0207819556775 1.77627517315 0.0268376684757 0.0369422190422 2.8342986419 0.0313581665949 0.0466064796213 7.32929561901 0.0296093650063 0.0424039745142 12.1256944427 0.0152717971928 0.0207157556174 1.85548921929 0.025968883155 0.0358037822385 2.43757001393 0.030899671242 0.048989683831 6.96449621353 0.027402747869 0.0412986129798 11.5665086936 0.0182753881503 0.0262353656461 2.11083294308 0.0228399665672 0.0333082637885 2.15608032265 0.0247546638504 0.0379827938047 5.40227979509 0.0300539355738 0.046503261272 11.9418933095
0 0 0 1 0 0 0 0 0 0
0.0183079938927 0.0267266935954 2.32047826522 0.0248636947626 0.0341653119943 2.35645467244 0.0285107047066 0.0431315728555 6.54917080024 0.0301002607013 0.0439632900416 11.5764083654 0.0214376794843 0.034501632466 2.48134770602 0.0239854512397 0.0366357183215 2.35577895522 0.030137302404 0.0456916814812 6.29254520733 0.0282984648541 0.0406980814057 11.4649728991 0.0258590987436 0.0670536493679 3.18635982092 0.024631698156 0.0580711687822 2.89136524787 0.0202971016777 0.0369146219138 4.64821380986 0.0168349148778 0.0261701269293 6.60076509192 0.0264698690297 0.0421340950276 3.36596577796 0.0360403562104 0.0620086791997 3.84051568219 0.0276427397842 0.0394067945936 6.4818234077 0.0242521232461 0.0339381207242 10.084781633 0.0158443141956 0.0217157934366 1.88997461489 0.0281452635801 0.0426162007585 3.0988237684 0.0272451717084 0.0378116327228 5.67259752635 0.0330786068637 0.0452387498262 12.5649012551 0.0212352485226 0.0285925362544 2.38620045247 0.0253643246242 0.034475833253 2.75118128646 0.0286756025235 0.0369422504388 6.77656625091 0.0336224768274 0.046362046413 12.4812385197 0.0194362406876 0.0258464944825 2.23642510684 0.0289208387311 0.0373838575636 2.64059831892 0.0334569063351 0.0431308910229 7.63640550064 0.0319925551429 0.0434372873494 13.6879994491 0.0217733097272 0.0339394313024 2.77659034315 0.0230626054089 0.0322713668546 2.26942352141 0.0276756879136 0.0370330754018 5.75328712273 0.0317653512606 0.0458178727958 12.0457053693
0 0 0 1 0 0 0 0 0 0
0.0145353786288 0.0223667296591 1.7142611292 0.0185151960505 0.0270815871847 1.94490963886 0.0258198802611 0.040684961118 5.5221413469 0.0287767934707 0.0468751486689 11.5432795308 0.0179451138979 0.0341986341112 1.99056803852 0.0220755600206 0.0370738435406 2.49291959398 0.0218852642373 0.0392073568158 4.6918138615 0.0240989204523 0.0439172039935 11.4326841497 0.023171304745 0.0677343087757 2.6351599235 0.0223320032237 0.0578041177369 2.54999550443 0.0155467385299 0.0342010002542 3.56085478304 0.0111824585044 0.0276797032313 5.20860649985 0.0236513721141 0.0517545299893 2.84610727866 0.0305879312491 0.0778084520978 3.58874271276 0.0177349767213 0.0305118885901 4.13826524022 0.0166618621461 0.0261662762463 7.07158375934 0.0153947633568 0.0199715575148 1.82617179006 0.0226700458551 0.0309766841485 2.34336185293 0.0294310745437 0.0384519798759 6.49069886345 0.0366420029867 0.0474810639892 13.4889144182 0.0155701800759 0.0261536730028 1.91047553443 0.0191799590734 0.0288518986685 1.8057919435 0.0252697421564 0.0391648544836 5.22113712939 0.0292753076698 0.0467683520438 12.0386129567 0.0152533351944 0.0214044510118 1.95658392972 0.0274298173668 0.0363535036865 2.83299605382 0.0340931120928 0.0478773349734 7.81676597526 0.0294592310622 0.0417406491673 12.534902817 0.0158662316061 0.0284144189517 1.97973738121 0.0216429250579 0.0320233098109 2.11667807067 0.0258885645122 0.0395344271805 5.38250636203 0.027325176655 0.0457562014724 11.4829490203
0 0 0 1 0 0 0 0 0 0
0.0122133121416 0.0174493805735 1.43671120006 0.0229164304998 0.0342258737278 2.2242417838 0.0277717417966 0.0409826755447 6.14705108101 0.0313137160677 0.046093065175 13.3971418994 0.022385182785 0.0276769857996 2.02419206035 0.0257720662324 0.0332102326808 2.21470425426 0.0312458076723 0.0458324024652 7.34744231911 0.0299792105147 0.0426121461681 13.335853574 0.0126273731747 0.0251592584925 1.55328442515 0.021271965772 0.0601849031175 2.08214545264 0.0182733148661 0.053308928062 4.38504155125 0.015833185082 0.0291309065253 6.90261578089 0.0215685808666 0.0444498433301 2.38862058509 0.0310816002115 0.0558445871279 3.07041304883 0.0247218041631 0.0428596968951 5.95613482711 0.01991397265 0.0337824644375 8.97947664806 0.0116816377179 0.0163822965516 1.47137282799 0.0238976748739 0.0306146908276 2.34749565684 0.0242491055497 0.0301510713915 5.36039851496 0.0382596597737 0.0507679037051 14.3160599481 0.019351339178 0.0265121762048 2.5049339098 0.0232292106832 0.032975849292 2.65320546736 0.029114323379 0.0380071785598 6.75234549835 0.0366877059072 0.0465132775816 13.6694970559 0.0191253466287 0.0248706449788 2.46905089673 0.0302948625901 0.0410057245982 2.7100772938 0.0382431433715 0.0513570338584 8.68160923166 0.0291191240678 0.0379414847113 12.9801532857 0.0169430537631 0.0256062718302 2.2197999687 0.0227982229279 0.0304130485533 2.20338360655 0.0295378312143 0.0406554051306 6.42727149322 0.0316322778068 0.0459537123672 13.6645694398
0 0 0 1 0 0 0 0 0 0
0.0132328171825 0.0188869805128 1.3752814579 0.0178011378685 0.0281168753227 2.00693473711 0.0249851242829 0.0356247370396 5.06605201468 0.0306830365625 0.0491116402807 12.8570153831 0.0224437009603 0.0286200148809 2.13533683263 0.0241098272325 0.0386446407137 2.18679073222 0.0291760227669 0.0393741105562 6.33590945715 0.0289121911934 0.0444976928095 12.6356076258 0.026825240038 0.041310265322 2.9344896513 0.0270551706669 0.0371908794199 2.60683850513 0.0308370511413 0.0403390118844 7.19847331782 0.0300442688426 0.0418006041844 12.5139744777 0.0243657953522 0.0505110187381 2.89912690649 0.0281676649079 0.0627610567876 3.44524291471 0.0228223077765 0.0450233347779 5.3071690507 0.0162344662917 0.0264046336901 7.10434099193 0.0155434465132 0.0202313950704 1.96809027192 0.0194802920647 0.0248911944773 2.19286287267 0.0264646260248 0.0333223493486 5.2868121961 0.0399891293636 0.0502088002548 14.7345754874 0.0181775419941 0.0253719111932 2.13027183316 0.0229212000119 0.0301431419846 2.19734404694 0.0275352800089 0.0356907944562 6.13873154667 0.0345567710103 0.0480450955593 13.1928128313 0.0188917871024 0.0243801825998 2.3382729475 0.0292325547795 0.036668640568 2.50730472684 0.0366382546818 0.0476210117845 8.099476003 0.0309670638877 0.0414090246863 14.7919378663 0.0150522427883 0.0214804121923 1.68567514266 0.02361999112 0.0365029875348 2.36493327239 0.0272139970754 0.0406564777925 6.22325673908 0.0308037938022 0.0453694797012 13.036474602
0 0 0 1 0 0 0 0 0 0
0.0113096790523 0.0150279558282 1.25344599635 0.0254858666202 0.0345743397709 2.22805889165 0.0292246108088 0.0452162240775 6.38482197051 0.0301157121923 0.0442241310449 12.961830324 0.0246718849257 0.0304364157635 2.08671852803 0.0300353381705 0.0401755854955 3.30355198292 0.0323313537134 0.0427449474042 6.54923242742 0.0292978633493 0.0422451748775 13.495789227 0.0231185038351 0.0277130743769 2.17499426981 0.0306286244547 0.039373918861 3.18614605202 0.0308070500036 0.0427605781209 6.96277718929 0.0308774537523 0.0428896236664 13.7557359903 0.0233984051166 0.0462912501094 2.69150812681 0.0286866399309 0.0701688625809 3.54454108108 0.0210899153749 0.0405172396675 5.02913366631 0.0167189577589 0.0273106700769 6.66561658973 0.0146508067757 0.0182352104879 1.96787988333 0.0214226469797 0.0285920048041 2.27469786325 0.0249425823967 0.032865072001 5.50123486908 0.0372525681604 0.0500576711849 14.8501391688 0.0183061043498 0.0233044173134 2.07033323003 0.0276528719146 0.0390982345345 2.71322618041 0.0286282903627 0.0374846787816 5.92513150717 0.0339728365115 0.0459656481424 13.4825911401 0.0162117577881 0.0209458804629 1.97205525872 0.0340747131288 0.0424693599843 2.97403195535 0.0365485725758 0.0479076241705 8.59492932524 0.0307222817343 0.0403133848125 13.6674124686 0.0159646960617 0.0199711555422 2.01872424838 0.0285616382038 0.0359307295903 2.19418165679 0.0315575862328 0.042594941609 6.90958440501 0.0305411576833 0.0447627379899 12.9240770171
0 0 0 1 0 0 0 0 0 0
0.0153295330937 0.0231983381826 1.72911680103 0.016904900131 0.0268051158432 1.72911680103 0.0221076769578 0.0336975530859 4.48580189435 0.026235920275 0.0495116300367 11.3335540126 0.0208152626689 0.0287159769091 2.07761362353 0.0249626646293 0.0379112730931 2.94622044919 0.0293818936377 0.0411302384966 6.49887647411 0.031262020437 0.0438408152821 12.3483024404 0.0238042257376 0.0345929175658 2.4247782739 0.0279440910833 0.0525465474695 2.8831205086 0.02645048912 0.0432304818183 5.90170004278 0.023582447237 0.0375425579182 10.1722405637 0.0210145496299 0.0467133962885 2.73490789442 0.0191153080366 0.0516937879773 2.08302114753 0.0201207997357 0.0452812786167 4.50170307397 0.0186740136663 0.0330838171874 7.3651471789 0.0164715158681 0.0214296315503 1.72702423919 0.0222460128103 0.0321100441493 2.44232821492 0.0273941614479 0.0378592669243 5.45958776566 0.0336175119118 0.0473719355357 12.6518281366 0.0285450994055 0.0339851813065 2.65159899297 0.029095366382 0.0362877108143 3.05398171953 0.031176438032 0.0390023554968 6.39092661062 0.0349763446932 0.0442130505625 14.062760418 0.0183041726129 0.022655166843 1.9541572037 0.0302579179927 0.0385032334032 2.95808503833 0.0315210587696 0.043990244123 7.10874715758 0.0308805088979 0.0432067547096 14.5079245684 0.0125932297267 0.0204940862978 1.34187005777 0.0223261069698 0.0328739807785 2.12078819217 0.0219361115078 0.0362800380218 5.33471028623 0.0315694608012 0.0479586927214 13.4230199019
0 0 0 1 0 0 0 0 0 0
0.0175821521854 0.0227095413965 1.64489275329 0.0254574911852 0.0381901893952 2.57207655994 0.0257714515479 0.0377054122535 5.37606724815 0.0322339456733 0.046140338291 12.9599692086 0.0220567138849 0.029349773433 2.50556530535 0.0244644643285 0.0316236534655 2.24114271199 0.0254468426695 0.0350347730337 5.34018866774 0.0329130886529 0.0474789375177 14.3239653621 0.0239782774917 0.0397846702426 2.57933662261 0.0218765957992 0.0338343591689 1.99898588252 0.0238453646346 0.0486610593752 5.58812404928 0.0233573260825 0.0383078062789 9.68684198269 0.0264568675148 0.057207582144 3.3365121392 0.0276717896185 0.0690958369996 3.11356100845 0.01905511795 0.0338452671516 4.25107343619 0.0174677364173 0.0273650642735 7.56676750685 0.0141549940851 0.0213365316074 1.62758996558 0.0180687093371 0.0272823930615 2.21288959683 0.0194381875398 0.0275176649777 4.52024859861 0.0329970723043 0.0515250254961 12.9222909578 0.0259783568215 0.0318095843649 2.49680873895 0.0261066450033 0.0335838883029 2.67961939807 0.0332464769772 0.0417442036077 7.06884507081 0.0340925843225 0.04389888681 13.7204210472 0.0174920623989 0.0230929821499 2.14718212001 0.0280628051435 0.0360137353293 2.69459558357 0.0355490503432 0.046397636379 7.38788461763 0.0312717806196 0.0424192675952 14.2563454605 0.0125844559244 0.0191355471304 1.48070837121 0.0183027659133 0.0271199298272 2.05514808815 0.0257216912672 0.0376426355376 5.44317029484 0.030083736675 0.0484709643887 12.1054952885
0 0 0 1 0 0 0 0 0 0
0.020257608967 0.0268145483342 2.01165749805 0.0245655561903 0.0313835814231 2.23474762211 0.0278870406687 0.0398912594608 5.46136323108 0.03346351861 0.0459531255338 14.0623705791 0.0193249037983 0.0261894901065 2.25892456561 0.0231550649115 0.0320137253014 2.21714098983 0.0257784049299 0.035144133464 5.40681730908 0.0348022366602 0.047833944798 14.248199341 0.022542090381 0.0284025181938 2.07028206045 0.0259557750862 0.0496414789812 2.80304713942 0.0276759195964 0.043343624495 6.02419452868 0.0262794865669 0.0397020600518 11.5653283548 0.0178909480326 0.0411719334379 2.31865382973 0.0192379289409 0.0427603056169 2.39523621202 0.0208542507496 0.049835962609 4.95547693226 0.0160714375314 0.0347940912927 6.98854973696 0.01867281658 0.0244936026944 2.32004726432 0.0206806463198 0.0296681332224 1.94859876246 0.0250159954312 0.0329000328715 4.86690308389 0.0349563157697 0.0492147699009 14.1351213681 0.0269428907503 0.0328797974611 2.52589600784 0.0268025631944 0.0337224372866 2.31540467386 0.0336378060194 0.0426558840311 6.58616334671 0.032345501656 0.0432319343505 13.9029526098 0.0182238997129 0.0246976562195 2.20020252632 0.0284128717851 0.0350867998233 2.42586432389 0.0392389727903 0.0509084188033 8.23583245904 0.0304814382628 0.039714422376 13.6576674303 0.0124556859891 0.0217063381948 1.52051208226 0.0201931351657 0.0268432618206 1.45335469698 0.0220065738007 0.0308475585464 4.74265612065 0.0343076659709 0.0505926471283 14.0772211467
0 0 0 1 0 0 0 0 0 0
0.019686532015 0.0287174684144 2.22837798219 0.0271245646449 0.0427344968769 2.37996832111 0.0276408715327 0.0420376527922 6.27279137316 0.0279128344073 0.0422731434049 10.6962143145 0.0153940092529 0.022908886219 1.69968376106 0.0190967998973 0.0323149558187 2.20367470987 0.0239765502021 0.0354502779612 5.54927435921 0.0293309018171 0.0480905798492 12.9083396074 0.0322730787311 0.0396583038605 2.95353063219 0.0298072704685 0.0417326893095 2.85562353941 0.0287692307692 0.0376268400574 6.44615384615 0.0307863413963 0.0423891988773 13.3371217498 0.0188961679982 0.0334353636122 2.42252597119 0.0216089183652 0.0412346940625 2.59606220791 0.0240057611379 0.0421205980151 5.43867302865 0.0249134206506 0.0417337400814 10.0870430929 0.0139166901165 0.0193103781411 1.61588235242 0.0226790505602 0.0312028150552 2.189559245 0.0253085292067 0.0362634841274 5.1761482113 0.0342453663459 0.048365138271 13.6321711186 0.027294941434 0.0335946322608 2.61151367224 0.0270398485234 0.0336490659432 2.64021162469 0.0294016020874 0.0376937001596 6.81152146518 0.0344375429307 0.0453620003811 14.8272754285 0.021132771953 0.0277023773458 2.48823937243 0.0314743412066 0.0395504819672 2.49787437484 0.0361087703673 0.0463232238671 8.51962591402 0.0309925910861 0.0409572608337 14.3802410972 0.0168984796924 0.0302144868898 2.00052212917 0.0211962532073 0.033848237847 2.70965475912 0.0223462371408 0.0303007075792 4.67583373507 0.0292614366968 0.0485758405753 11.808361337
0 0 0 1 0 0 0 0 0 0
0.0116467101096 0.0190029635102 1.31929655022 0.023031343034 0.0435634721685 2.58827428088 0.0243802459545 0.0410952737329 4.73001974569 0.0257412211288 0.0438657085815 10.5732419591 0.0211105982353 0.0326430387539 2.31488628925 0.0213047186788 0.0472206333205 2.37676218063 0.0241584432313 0.0476442370878 5.33784921112 0.0243135855537 0.0370743526164 10.3915099934 0.0162245091708 0.022240360347 1.90720302683 0.0242768947186 0.0328622532203 2.38540696411 0.0266702955252 0.0383645340105 5.61346220101 0.0326884944916 0.0469443742065 14.4022453409 0.0160470053139 0.0202494452745 2.04819553832 0.0221790687008 0.0306008362478 2.39280022724 0.0304620925838 0.0401404929928 6.58922910851 0.0346504764905 0.0468090903696 13.8126886967 0.0166488812252 0.0210295471075 1.96591258569 0.0239006625211 0.0312629047581 2.11094821161 0.0288437834814 0.0382557596947 5.72709345347 0.0349445211197 0.0473991454781 13.4747161205 0.0200998997979 0.0268735400056 2.45429177376 0.0291873823345 0.0364897202561 2.43414710804 0.0304830796362 0.0387684272572 6.45510074228 0.0344249954222 0.045479843317 14.3463594381 0.0196150616109 0.0248010880665 2.37655682044 0.0277846336633 0.0361301522182 2.6586497168 0.0321439505571 0.0423187359329 7.36751357855 0.0325165145055 0.0442467531092 14.3473053742 0.0177302321007 0.0232243329716 1.86153606923 0.0222480759537 0.0288305505271 2.03441274728 0.0281841780842 0.0389868352633 6.1277605786 0.0335380755415 0.0472303302973 13.1289464377
0 0 0 0 1 0 0 0 0 0
0.0152685493674 0.0240523625675 1.71845251612 0.0209374674378 0.0340922974361 2.4384248634 0.0227382839959 0.0350203674516 5.06478515602 0.0276433827163 0.0478008372596 11.3358609081 0.0150446946772 0.0224093736415 1.50947102845 0.0206731176859 0.0302537789652 2.20768890642 0.0247847556632 0.039642325336 5.16207610817 0.0283955274537 0.0468317046683 11.7596695895 0.0174704338373 0.0236551010569 2.06182597539 0.0247366653281 0.0344995383824 2.43563030299 0.0316812515017 0.0451732326934 7.10324078604 0.0299699259145 0.0433079365555 13.4943362263 0.0159086461384 0.0219973269146 1.92246584659 0.0206886317102 0.0280574887659 2.13066624908 0.0302279946776 0.041905490023 6.88361999834 0.0336118401247 0.0462333431572 13.3223618488 0.0181126114109 0.0252110223354 2.25808513777 0.0230570011554 0.0316114548525 2.36971230419 0.0285761778085 0.0413591169627 5.81824893676 0.0305744916852 0.0454898353931 11.7227444605 0.0132543477539 0.0176384367031 1.67496276565 0.0210887020025 0.0303008131339 2.10178725419 0.0318621290979 0.0518031285317 6.51832266551 0.0266688316795 0.0410394668462 11.3930727115 0.0166027436907 0.0251589953883 2.04639738845 0.0233749154593 0.0340080854395 2.47566569572 0.0294270178924 0.045531614897 6.19010065351 0.0271760699358 0.0430045128413 12.2505310436 0.0136109550791 0.0212607565192 1.69945675707 0.0218178671861 0.032167523962 2.0343405011 0.0251650729763 0.0364789625131 5.67726406955 0.0311410584399 0.0479195538263 12.9644868754
0 0 0 0 1 0 0 0 0 0
0.0179305691368 0.0261464111335 2.23908726721 0.0195389590594 0.0309181101774 2.02463527753 0.0254138171862 0.0373101940381 4.77562130965 0.0290999435991 0.0471955183861 10.5572927418 0.0136251739366 0.0190195822783 1.57638446897 0.0213867075305 0.0351505934735 2.20098963592 0.0242964477132 0.0356917238257 5.16174326108 0.0275902690526 0.0479276180883 10.3633469537 0.0212701149634 0.0290393617509 2.49534451957 0.0293389700996 0.0408619441676 3.1579609461 0.0298818744089 0.0422215350397 6.22102708615 0.0306284548603 0.042588244502 12.1913762176 0.0236510803401 0.0321041733634 2.94614800774 0.026870451276 0.0418507002646 2.90590587104 0.0275269402537 0.0389277584168 6.16885021246 0.0291084788783 0.0433602165661 12.4454102757 0.0183940118462 0.0257848922201 2.28180028668 0.0203521718061 0.0307583953514 2.14989645605 0.0234168831699 0.0350813274003 4.8798528095 0.0308183554811 0.0481170310743 12.3540855808 0.0194986888685 0.0253099464988 1.92124245604 0.0189752341337 0.0264635199558 1.94577939673 0.0220232343578 0.0335334199662 4.69844422065 0.0281029760705 0.0493544363352 11.3556961514 0.0201751238694 0.0248007686044 2.36899213272 0.0245756129943 0.0332084566603 2.73259186974 0.0322500508648 0.0417844154696 6.98531355199 0.0319408384364 0.0450654492486 12.6980215851 0.019377230465 0.0257697178821 2.17370494325 0.0215856648195 0.0310731393953 2.45688321935 0.026463224503 0.0380566681124 5.47189294727 0.0288521262439 0.0469230620433 12.351203426
0 0 0 0 1 0 0 0 0 0
0.0136716790125 0.019169787898 1.63779425634 0.0236003911484 0.0330307835224 2.67351259075 0.0245165893578 0.0342755737678 4.97714623724 0.0323274139186 0.048798539914 12.8881184466 0.0123785425866 0.0204342267324 1.62201592514 0.015935595054 0.0260171905284 1.76785507631 0.0229220010911 0.0424110454942 4.9159895171 0.0270098850693 0.0464798019262 11.1531380116 0.0118859478345 0.0158860805972 1.33784755306 0.0192309932239 0.0273086426425 1.91043545102 0.0228345087543 0.0333341924668 4.67435826264 0.0270554566004 0.0502813758732 11.9917816166 0.0221910615679 0.0283274736242 2.54747685538 0.0329796013815 0.0470769779177 3.31385788483 0.0301424693935 0.0409436872186 6.82275725045 0.0300741511268 0.041718924589 12.7209383321 0.0146979657897 0.0187156912772 1.78631401262 0.0257510731275 0.0319123165624 2.19413811379 0.0282770074834 0.0389599238395 6.10145321716 0.033900146902 0.0472464521255 13.7260035359 0.0144340232059 0.0202015005245 1.66235026006 0.021398569988 0.0341967181316 2.17685615358 0.019390920639 0.0280297322333 4.3066311362 0.025481535539 0.0504591057213 10.9247621961 0.0178113624737 0.0221530017105 1.94879655724 0.0274772847917 0.0380256273699 2.93846753615 0.0348653596039 0.0442048066704 8.21620630092 0.0311698843289 0.0432680587909 13.4684852973 0.0136803035874 0.0198483516768 1.56000533281 0.020507935274 0.0270933302749 2.17474258675 0.0263643905366 0.0358653174359 5.56148762092 0.0326899993898 0.0490731233317 12.1833161265
0 0 0 0 1 0 0 0 0 0
0.0210708509584 0.0291041563369 2.39104773571 0.0200831548197 0.0270742067016 1.96304607562 0.0275870621776 0.0405918435418 6.34095026214 0.0291919080986 0.0459833481395 12.8112419987 0.0228991769009 0.0325442842106 2.41464283073 0.027636937639 0.0402384198843 2.46309720192 0.0280190411447 0.0436410479114 6.6583292068 0.0290367305843 0.0413702499937 12.1243604343 0.0212358248864 0.0274580701623 2.22355633956 0.0254646038681 0.0499127717287 2.82339944512 0.0272368062006 0.0450151918466 6.42080079347 0.02753302837 0.0388438152756 11.6038614558 0.0338993674965 0.0474067129847 3.70904621663 0.0332579414323 0.0473220202632 3.34343335999 0.0254672098097 0.0353174077952 5.74542974646 0.0293292067886 0.0398494815173 11.7140434987 0.0275429491191 0.0348066870549 2.73646332135 0.0244704288987 0.0327341615425 2.6130138482 0.0275454628051 0.0359866919019 5.88929754058 0.0349499175077 0.0459897231717 13.8757207813 0.0307738194759 0.0400050286746 3.24067160195 0.0337883977102 0.0431635624697 3.42908274159 0.0301980734191 0.037595773648 7.00106805078 0.0320926974534 0.0419611531557 14.0083682328 0.0254679673972 0.0323598470314 2.82632321115 0.0290569492526 0.0358782029205 2.73314772067 0.031966436191 0.0403051951134 6.85936275824 0.0337847426583 0.0440167885084 14.1109103912 0.0172722950434 0.0231182282459 2.16816875847 0.0193595814535 0.0292173502482 2.01162227772 0.0247956974975 0.0358650344827 5.53752128264 0.0338662220036 0.0484061615491 13.3260191744
0 0 0 0 1 0 0 0 0 0
0.021170838014 0.0287082885811 2.37666254775 0.0221597094287 0.0297833903025 2.06651651315 0.0272067025762 0.0422449042636 5.532718167 0.0296886167904 0.0448688457888 12.8137508426 0.021558548326 0.0308524739752 2.51284469688 0.0277242503298 0.0431156562718 2.66377594385 0.0296557888813 0.0462713754307 6.39211682241 0.0268786071731 0.0394981581808 11.4964651947 0.0176671354219 0.0254817178696 1.93643564495 0.019431176175 0.0289578527851 1.93242646142 0.0232652505328 0.0435490352191 5.11703215416 0.023052805297 0.0448676420508 10.3316659566 0.0321594802004 0.0440394388521 3.86841439719 0.0276447839415 0.037107092539 2.86188451207 0.0282065775218 0.0371669567432 5.72003153464 0.0309225771158 0.0425856768618 12.5885811438 0.0257535486436 0.030958526135 2.73186814341 0.0228129961281 0.0295647818107 2.21252862657 0.0285398583086 0.03921445816 6.44410549236 0.0339823528603 0.0458946598522 13.3107429592 0.0227159536155 0.0317306391666 2.04888993395 0.026081280077 0.0345040385292 2.30128941856 0.0322301940306 0.0473109518951 7.21767374465 0.0286300199707 0.0408023248668 12.7981385729 0.02551277658 0.0361212409866 2.86355875702 0.0291658762289 0.0440461286464 3.26127525105 0.0332057392363 0.0423708909775 7.06819781861 0.0309629655723 0.0403049098428 12.5766793557 0.0202687514913 0.0256781384219 2.22903756686 0.030403127237 0.0402252380072 2.69768680795 0.0264736745314 0.0344694409279 5.97607000818 0.0338162589648 0.0465822177768 13.4254223771
0 0 0 0 1 0 0 0 0 0
0.0178319683949 0.0266315431083 1.87458335806 0.020095756266 0.0287521097207 2.36445220886 0.0240767004112 0.035015256447 5.35722985171 0.0313311952495 0.0483354788523 12.7198900465 0.0223091656602 0.0357670917577 2.77844023375 0.0216560153389 0.0315883730605 2.17223509184 0.0284180245287 0.0422636011484 6.35833453841 0.0278915598121 0.0432544772361 12.3445410716 0.0126461256979 0.0206150943611 1.47414979442 0.0170796589142 0.0344571569576 1.95550482933 0.0235123605139 0.0520729149979 5.82882613503 0.017618016519 0.0396795873197 7.60034265651 0.0234874756508 0.0302315674449 2.73619465317 0.0282523528832 0.0372149275453 2.97443851479 0.02824747386 0.0387462035031 6.38120644427 0.0342445469785 0.0448104291966 14.6664365116 0.0195319318294 0.0256710047564 1.97207764742 0.0224815053285 0.0309810478763 2.19329565985 0.0263760118228 0.0379803059362 5.38711601164 0.033938080444 0.046982710231 13.3917830941 0.0228248587571 0.0289627245604 2.33474576271 0.0242937853107 0.0316333732863 2.47881355932 0.0258074000365 0.0372045802417 5.34524787134 0.0302824858757 0.0467050908146 12.0 0.0249602353812 0.0307082464094 2.52276664746 0.0284071250291 0.0379881870085 2.34447925188 0.0336181937106 0.0435133269319 7.38759806791 0.0328048807868 0.042309618712 13.3358971894 0.0165156474604 0.0236327612254 1.72090525064 0.0203338778438 0.0360074183207 1.72090525064 0.0254325165222 0.0430608724899 5.639217985 0.0271148388785 0.044073275 11.5384400714
0 0 0 0 1 0 0 0 0 0
0.0240701379298 0.0293596373291 2.58014007508 0.0237350548032 0.0328491145617 2.61364838774 0.028551215908 0.0402128837985 6.36775043591 0.0320842093751 0.0451611798312 13.034733626 0.0208915611406 0.0306615577705 1.8339467024 0.0202810934449 0.035452803997 2.27653578176 0.0219669953405 0.033905544109 4.6979633048 0.0255039837301 0.0470030027087 10.8154526749 0.0276854993674 0.0347246493219 2.60736723495 0.0250307254555 0.0313123404317 2.55996055795 0.0272642206607 0.0352556118728 5.84616403675 0.033627136218 0.0465326580544 14.6202191865 0.038922876183 0.049184405828 4.08895417194 0.0329031694974 0.0407732173582 3.5143458065 0.0296509174013 0.0390946536263 6.26877470671 0.0312272284315 0.0393541243665 12.9799925408 0.0209139593332 0.0293418460172 2.43414227916 0.0226782300678 0.0300447852365 2.50581577775 0.0243008019432 0.0330724179624 5.54760018692 0.0330249428135 0.0484306995251 12.2065481451 0.0298989189636 0.0364199348923 2.55081686263 0.0266929742729 0.0347407782839 2.61354186745 0.027844001206 0.0364199348923 6.15032097434 0.0329306275298 0.0451308560878 13.485876036 0.0303768437274 0.037665389229 3.42984444546 0.0272229637776 0.0346654664615 2.69532240451 0.0329824474623 0.0411650943491 7.04251547237 0.03170479318 0.0427896811072 12.9101585842 0.0220922477268 0.0281403953766 2.25044165277 0.0271481850175 0.0409854156334 2.48125618126 0.0305436827087 0.0456497492918 7.30367069352 0.0285220810204 0.0409079697795 11.6314035606
0 0 0 0 1 0 0 0 0 0
0.0250865466512 0.0334448629911 2.91269279628 0.0285600684952 0.0409699465126 2.57981361956 0.0279728291307 0.0381275173954 6.59578842978 0.0326125106466 0.0436715662363 12.8230848075 0.019560449289 0.0309007659049 1.88685256059 0.0221104601661 0.0344690264593 2.19005507342 0.0249579576957 0.0392395104729 4.99379047814 0.0262930999584 0.0450302227689 11.4470610227 0.0268675275891 0.0339197348227 2.4400101586 0.031497759101 0.0396135499407 3.21679241883 0.0332145592834 0.0422786470112 6.80446126953 0.03207653804 0.0419481334442 13.9181103803 0.0327994218365 0.0423753711084 3.50815313212 0.0306589605266 0.0387708724189 3.21541357063 0.0321848703886 0.0414103943445 7.0713231829 0.0320124875314 0.0406350808696 12.9844160341 0.0236817018659 0.0316912853098 2.53571163859 0.0292538670109 0.0380174078206 3.02704106522 0.0273944534926 0.0369193329532 5.64261848179 0.0320211247011 0.0451597115246 12.5260766467 0.0273243756089 0.0345623945828 2.45473874356 0.028868796839 0.0365568473877 3.28338013431 0.0253696429913 0.0328830602197 5.7459721212 0.031720036033 0.0464752079723 12.3048791465 0.0245019636035 0.0317169148111 2.82853550423 0.031227992828 0.0401238705209 3.36901999548 0.0329524303489 0.0416527193429 7.25293183452 0.0337102178989 0.0425662648271 14.6891673956 0.0188159360832 0.0237306988396 1.83690017344 0.026145659403 0.0398104121287 2.43355752905 0.0233546398174 0.0481586018934 5.48470600853 0.0260786192507 0.0404562000174 11.4571620307
0 0 0 0 1 0 0 0 0 0
0.015656477811 0.0211449438837 1.69808673672 0.0191656883548 0.0288985561897 2.11817972971 0.0256728072274 0.0394829443311 5.42922610092 0.0293221534865 0.0472580478478 12.061224124 0.0139430940747 0.0176543474404 1.2581463794 0.0156859808341 0.0229032287616 1.76648835087 0.0190680756897 0.0405883929505 3.74857143271 0.0243035875886 0.0479642162906 10.0760640774 0.027600621806 0.0334120726005 2.34517941611 0.0320260379605 0.0425810063469 3.04392933525 0.0292337060321 0.0406562983392 6.25024869813 0.031676663001 0.0421246823343 13.817779651 0.030162360165 0.0398937935509 3.21890800179 0.0357656444644 0.0452403593965 3.80009972434 0.0311068595732 0.0413437545965 6.86627022285 0.0297450943129 0.0396122341041 12.8041007182 0.0217610667247 0.027015235403 2.51517445632 0.025877113454 0.0363491691942 2.81881724783 0.0267430588936 0.0378449773746 5.9366727972 0.0315282431848 0.045874185724 13.8916577115 0.0347225645183 0.0414814860035 3.00445719551 0.0278702937215 0.035857117711 3.23176810175 0.0291183121811 0.0368777187367 6.41534653973 0.0315929216063 0.0436089282238 12.3044381856 0.0248844545681 0.0322496017877 2.82095325492 0.0298899483031 0.0413938761604 3.13200893702 0.0301356209094 0.0385044069451 6.40887575548 0.0326072163307 0.0436310234406 13.4397506784 0.0181856022013 0.0245421633075 1.76696985927 0.0209370881135 0.0272711099542 2.39250298463 0.0259311246546 0.037630252871 5.80030314666 0.0288691060949 0.0478414837069 10.6147167458
0 0 0 0 1 0 0 0 0 0
0.0198143811352 0.0262443348827 2.08925165793 0.025719843748 0.0332267462205 2.46805600316 0.0281316558119 0.039079315031 6.70874057545 0.0338010031129 0.0460601938471 14.1556269933 0.0154313659034 0.0287582469335 1.79491701773 0.0158082513665 0.0235315996498 1.8074798665 0.0203871173985 0.0348553026084 4.57710772967 0.0251361665767 0.0487923563295 10.370631658 0.0167147201962 0.0245054656604 1.78686953041 0.0159692952818 0.0259330536633 1.6793563216 0.0236584568778 0.0446599740847 5.50408829676 0.0232085180083 0.0449201114294 10.252459592 0.0244418627516 0.0314673102977 2.79542919594 0.0319892312972 0.0410224992185 3.35277333469 0.0341965433368 0.0447422693983 7.42019832908 0.0296379357119 0.0407938565595 13.1411297716 0.0222684480205 0.0319844090348 2.448659421 0.0265597635244 0.0367166637632 3.04886368405 0.0298521150992 0.0377947789887 6.06781144478 0.0328807552802 0.0450147944473 12.4390158864 0.0289674405069 0.0358670552387 2.46771625699 0.0263868221989 0.0337320845876 2.8935182778 0.0301543689537 0.0378736509426 6.42548088823 0.0316448320014 0.0448336014607 12.6869647565 0.026934792214 0.0349745440918 2.89623421804 0.0316967444286 0.0392272983189 3.21989815763 0.0297787519641 0.0386300016877 6.55027317938 0.0347473700661 0.0435510608502 14.2077308654 0.0146419613238 0.0212467425373 1.6339580028 0.0238373959716 0.033752848121 2.61539381618 0.0270589647671 0.0477199763458 6.05825713016 0.0273387345491 0.0423918100101 10.9920811098
0 0 0 0 1 0 0 0 0 0
0.0184256545786 0.0240862780779 2.12936477695 0.021950562411 0.035248714179 2.18223839444 0.0215486764184 0.0343681314753 4.55105326881 0.0280230172677 0.0478235709881 10.6179837298 0.0271369468215 0.0367876128129 2.96500444715 0.0260550751874 0.0342829854582 2.64720465464 0.0259462082429 0.0384565674952 5.97177163919 0.0288949882269 0.0442912706351 11.3596521578 0.0242990654206 0.0325295407177 2.95794392523 0.0229906542056 0.0309047771286 2.32710280374 0.0251562599413 0.0379033129804 6.02692882656 0.0315887850467 0.0459530597319 12.5280373832 0.0208106717222 0.0298231519063 2.47459333331 0.0192981868325 0.0279702652793 1.94942496886 0.0269748721191 0.0392411949454 5.84950696062 0.030977931258 0.0463190955288 12.5368191963 0.0152420003631 0.021593025205 1.75869234959 0.0189997032716 0.0255032454038 1.89960620866 0.0218283625305 0.0307148792301 4.66536835401 0.0332695072427 0.0508179384112 12.4375596847 0.0154282778996 0.0221945658461 1.89567181368 0.021793307347 0.0322240338729 2.41628971141 0.0231234466569 0.0321028071204 5.08658751653 0.0343158109337 0.0493486721482 12.6954663434 0.0130389948179 0.0206652394852 1.59264882691 0.0180292274025 0.0278211572276 1.58258787412 0.0250608422779 0.034071244935 4.62705483086 0.0261048188432 0.0495241480442 10.2078427023 0.0153044694613 0.0215932122613 1.68432340539 0.0221011748432 0.0413587791042 2.34022923945 0.0243324576283 0.0341393850422 5.13703887913 0.0289454096334 0.0469721265392 10.5907403966
0 0 0 0 0 0 0 1 0 0
0.0236335810201 0.0302641460043 2.71654150553 0.0201127495832 0.0253537682067 2.01677625744 0.0270433211085 0.0353887074471 5.31219207505 0.03113735302 0.0481401080393 13.011672679 0.0231931582925 0.0348202438702 2.71387399547 0.0218207820622 0.0279152930155 2.11002845413 0.0244868439958 0.0365616585146 5.5895992635 0.0306268628734 0.046551344286 11.5073746913 0.0193138891938 0.0254502069261 2.15556799038 0.0224306808362 0.0301903682212 2.36633463832 0.0250016707879 0.0364770136533 5.90447694873 0.0330839768597 0.0477310614728 13.3779339634 0.0205758914779 0.0259537800361 2.46055804517 0.022914060964 0.0304000672364 2.44521380791 0.0275280360618 0.0402527300748 5.71330748444 0.0313022439955 0.0460841783865 12.4507525136 0.0123500939251 0.0161599774975 1.42869875376 0.0172424016636 0.0224268688705 1.90045699997 0.024342250671 0.0349333339306 5.10500208737 0.0339521043138 0.0503203447282 13.9993300704 0.015017426063 0.0212574447715 1.73360675103 0.0153859518559 0.0223587992501 1.61997796487 0.0234890305027 0.0338144357026 4.42346580592 0.033438597297 0.0502362079268 11.7267978367 0.0116278640293 0.0183907672958 1.47940684881 0.0157057722559 0.0235886488272 1.73107204223 0.0236448357932 0.0376974203348 5.0432704637 0.0264714499744 0.0489808576342 11.0785115353 0.0160368920041 0.0194744394666 1.79299065758 0.0200047828093 0.0258690682493 2.120341649 0.029109370889 0.0375871271571 5.94111738386 0.0319911196165 0.0486294319134 12.6278124874
0 0 0 0 0 0 0 1 0 0
0.0142474422106 0.0264242774404 1.69389508007 0.0158272407309 0.0296252852443 1.91111737661 0.0162598109226 0.0301253820432 3.76861457358 0.0214150466082 0.0498556819299 9.50731526159 0.0207195584236 0.0267550903748 2.34442402394 0.0186116727111 0.0242511097417 1.79828999844 0.024982817214 0.0373388400822 5.19557910536 0.0301930675063 0.0480650709749 12.5754545345 0.0186010093751 0.0257069347375 2.1942547845 0.0195842055849 0.025074956741 1.84747882401 0.0260051620209 0.037473754139 5.19304671497 0.0312364093149 0.0480498930427 12.8944854275 0.0164464063159 0.0217682046233 2.05692111689 0.0242438850597 0.0386595752912 2.69774839296 0.0251283018738 0.0357258573658 5.22370815119 0.03279571759 0.0469367714859 13.3498213665 0.0159471976639 0.0198609459299 1.89626337494 0.0192276927641 0.0250198073419 2.05062127176 0.0281313940142 0.0375988569082 5.83575383274 0.0354461861255 0.0486968616008 14.6855167537 0.0128841124914 0.0168732047624 1.43967500076 0.023893740845 0.0405263191792 2.54063783612 0.0274431831388 0.0395346681663 5.57364506137 0.0331831147683 0.0454979828512 13.9352472674 0.0117307489655 0.0154230186281 1.44528303009 0.0218187718641 0.0308667905788 1.72960100322 0.0258079857845 0.0376649836275 5.67946946253 0.0295795995011 0.0482322586185 12.612661197 0.0150784042196 0.0208686103491 1.74772412545 0.0188086800772 0.0235106990776 1.71401681349 0.026106907299 0.0346005187917 5.58446291553 0.0315163366885 0.0498765718123 13.7391003575
0 0 0 0 0 0 0 1 0 0
0.0186231276537 0.0235389034662 2.17453211378 0.0247849896839 0.0319999248021 2.78109040737 0.0307525280712 0.0422888306142 6.26721350066 0.0345641948256 0.0452177171587 13.6496247294 0.0241256476155 0.0515872495747 2.91142316234 0.024711505984 0.058794411958 2.64251417119 0.022577411173 0.0331961537632 4.83570863527 0.0225848401063 0.0353953983161 9.32920866024 0.0205941661329 0.0251340697741 2.40185726683 0.0258918542922 0.0324922283412 2.42333438099 0.0297488875879 0.040717979521 6.39356409929 0.0332060048365 0.0456343052286 13.9350675704 0.0168488499885 0.0237213262996 1.98548086771 0.0210976156313 0.0278947542132 2.01773364334 0.0247340367768 0.0364815629969 5.42604072099 0.0330569448345 0.0482977893436 12.9591652477 0.0179561907584 0.0228281206199 2.20787855753 0.0236937957354 0.0295512850023 2.5952715943 0.0278839209087 0.0348769655046 5.17428241166 0.0383222454076 0.0487496829513 15.2946958949 0.0189928050797 0.027554230083 2.45215325857 0.022660039459 0.0339408745036 2.53763946539 0.0275519669147 0.0381897699338 5.88184120398 0.0334325404484 0.0461118144313 13.1964685783 0.019191630503 0.024403763073 2.33593045 0.0236642562558 0.0312601581154 2.29933623929 0.0311087197045 0.0401796360662 6.78167214444 0.0314710212062 0.0461838334458 13.1891634416 0.0152096527885 0.0202419958431 1.8417172308 0.0218332112609 0.0265911612267 2.19497368266 0.029523794132 0.0374829575457 6.07822412683 0.0377297515947 0.0484937131737 15.0796347889
0 0 0 0 0 0 0 1 0 0
0.0165654723427 0.0254285519395 2.03206296313 0.0220793741842 0.0351542094516 2.34578496446 0.0285528475584 0.0430000466011 5.86854288841 0.029815473535 0.0440252644002 11.4793732303 0.019967379135 0.0323059564007 2.30313979527 0.0237717742469 0.0528175587999 2.90284459359 0.0236230632807 0.0359614481332 4.75401060397 0.0265111665356 0.0415737672491 11.5908756462 0.0171015635105 0.0242587377894 1.96482940674 0.0258666017562 0.0465791819973 2.75952620769 0.0266092985313 0.0377948340743 5.41482697597 0.0301906872907 0.0439270071063 12.8729195035 0.0159244344098 0.0249853166003 1.78348918912 0.0183451382992 0.0273486847945 1.81908777573 0.0256474731407 0.0393974966513 5.55462177289 0.03049216713 0.0470552633691 12.3764419444 0.0197513299448 0.0262319671488 2.45987654305 0.0241633670336 0.0318150379504 2.35488332962 0.028894335789 0.036289931385 5.7961080547 0.0377212584485 0.0474317993365 14.1103912473 0.0143319806642 0.0196105211608 1.62234024152 0.0251999235052 0.0328464984004 2.37605396569 0.0288684546278 0.0440768017851 6.40152934438 0.0327560939217 0.0446775654685 12.4862385328 0.0143836697159 0.0187420636716 1.72439696513 0.0213016044433 0.0277901152732 2.06012026807 0.0286752099153 0.0385256688237 6.29006389631 0.0330480071874 0.0480659015289 13.5322315957 0.0151545624504 0.0195593135352 1.80721305676 0.02170334844 0.0295541367618 2.28577818677 0.0268936283944 0.0365681877494 6.0221245701 0.0319883007956 0.0484841594675 12.6756790357
0 0 0 0 0 0 0 1 0 0
0.01732362003 0.0229994165683 2.03866957028 0.0273851136306 0.0388477473035 2.65939881257 0.0306671545494 0.0409184606347 6.35145745297 0.0342212494035 0.0445717731835 13.8142684314 0.0207743012934 0.0322300963281 2.40253255078 0.0245860996958 0.0323638628085 2.4838997859 0.026756517214 0.0537266962185 6.57613200104 0.026733901488 0.0369933062696 10.2522716263 0.0174943040901 0.0241806680839 2.1417121581 0.0254374003761 0.0407527832479 2.45237006499 0.0310119970719 0.0440864299721 7.28006631262 0.0294576791711 0.0424282119189 12.0462171896 0.0159228527055 0.0213955687006 1.81428658231 0.0218837155132 0.0377939369285 2.08528128701 0.0301687671654 0.0463543077127 6.2196016997 0.0310393558189 0.0422780605566 12.1748581456 0.0155887990942 0.0204902495826 1.90031769807 0.0238602497488 0.0305863291758 2.47854980662 0.0292657572131 0.0384012316564 5.73195888974 0.0365867421979 0.0475096050485 14.538324861 0.013450729272 0.0209124320616 1.57288823691 0.0227173576445 0.0396986593413 2.22168056964 0.0241770757717 0.0350315836433 5.03552946393 0.0312267407622 0.0470786476548 10.9871152608 0.0135997034057 0.0185901010443 1.60589194359 0.0250601276241 0.0335017362661 2.31643824513 0.0306321511106 0.0404862904491 5.72124303811 0.0315161666004 0.046333291797 13.5863329108 0.0163980818453 0.0201827930208 1.70343531939 0.0256119352986 0.0342217327264 2.72308029071 0.0307306834604 0.0411060553034 6.75209383073 0.0349707619707 0.0457587304326 13.5501635052
0 0 0 0 0 0 0 1 0 0
0.019628734836 0.0277779111129 2.14577018091 0.0215883423072 0.0333145277278 1.96450648983 0.0250110137502 0.0363177794434 5.8786274701 0.0308474876083 0.0469411893288 12.3504260869 0.0195400741804 0.0321503436185 2.28577496419 0.0271354558923 0.0675308755787 3.23095444816 0.0208528961471 0.0302670521398 4.5793860064 0.0246319501884 0.0384287675175 10.0294045244 0.0197845620134 0.0277730966051 2.32394377811 0.0239951918552 0.0325384129889 2.32799246065 0.0284949090832 0.0392137425088 6.10359807421 0.0309994126499 0.0459015384148 12.9436380812 0.0153371366541 0.0228374875319 1.59005344653 0.0228255589726 0.0366885350996 2.42720254534 0.0247721427609 0.0379806592637 5.31409668664 0.0299148342523 0.0463159608898 12.6928758298 0.015387857184 0.0210074397019 1.80355001314 0.0201887253159 0.0264852575832 1.99056890604 0.0266638025991 0.034318412187 5.84982295311 0.0389568952481 0.0495858979731 15.3473722513 0.0139893162694 0.020784730008 1.60385127062 0.0201774837272 0.0284016686195 1.80014805801 0.0234781152454 0.030955260789 4.65043144321 0.0343240403172 0.0504435754344 14.0040258478 0.0164060076333 0.0248081769114 2.02925533977 0.0278610898862 0.0340747947636 2.21439498635 0.0313113710941 0.0444818780144 6.73248412924 0.0299482447034 0.0435876161028 13.0409038698 0.0158529989827 0.0214909724125 1.80023475909 0.0244006974937 0.0350131486008 2.37049545917 0.0271283294669 0.0372893306978 5.79551779446 0.0328241562009 0.0470759027937 13.2837198372
0 0 0 0 0 0 0 1 0 0
0.0200377578862 0.0284447522515 2.09181514665 0.0222211339652 0.0380219961539 2.40875683553 0.0233823120875 0.033231330062 4.91551480944 0.0304087942614 0.0470901120613 12.2920551673 0.0232356447269 0.0374113360344 2.84175175883 0.0258283425012 0.0483281357718 3.14611193233 0.0281074961708 0.0429379011118 5.89001997922 0.026554016063 0.0384408306964 10.9950112677 0.0159247526043 0.0184349389491 1.62383393422 0.0225237083067 0.0313165573091 2.1228458737 0.0254903796814 0.0382010890677 5.68905939865 0.0302134004889 0.0476815299295 13.0642961861 0.0169443470238 0.0269187384618 2.19844502462 0.0229124692522 0.0355258623411 1.91763927365 0.0237027047417 0.0353239622518 4.76628016233 0.0307766303118 0.0470400450137 10.9826249265 0.0190890390039 0.025079047516 2.20503438915 0.0231707737918 0.0303590875624 2.53195111058 0.0270783777184 0.0332436454169 5.39696854699 0.0385418437239 0.0489193739489 15.221469313 0.0134254606524 0.0185601585322 1.66210984696 0.0228295861422 0.0314276211872 2.28989195071 0.0260551396854 0.0397365626974 5.09158254816 0.0317357720116 0.0470190643386 13.0567332119 0.0163732611476 0.0217619578979 2.04503973227 0.0259512953367 0.0342859772949 2.41392348144 0.0282348076693 0.0365237252646 6.01991725916 0.0334907614382 0.0474769872367 14.1793735867 0.0141421086441 0.0255677381905 1.77264690532 0.0141030420456 0.0243101306563 1.30677771863 0.0211878048827 0.0377260783176 4.5828641852 0.0268778197434 0.0480679926619 10.0293724907
0 0 0 0 0 0 0 1 0 0
0.0263084813872 0.0328543066997 2.53355345903 0.0264122623788 0.0329034438469 2.8215457109 0.032472527512 0.0411794487711 6.9403147784 0.0335990960517 0.0441015794656 14.1194039161 0.0238043906763 0.0366985866255 2.83925870807 0.0264873795535 0.0436736562193 2.24129469767 0.0254165570142 0.03595100677 5.42103272685 0.0305594335941 0.0432845499281 12.3046436697 0.0176212259191 0.0232063070703 1.91515576759 0.0237681651932 0.0348613636718 2.46838030226 0.0286509589451 0.0378247018835 6.26988747584 0.0331166353392 0.0466853023533 14.1725368638 0.01637427955 0.0229696364518 1.80598671507 0.0198284886234 0.0311351643654 2.10989068643 0.0267594078363 0.0404618324188 6.30163622138 0.0302010799083 0.0462655674048 12.170108545 0.0170243305432 0.0210611573037 2.00838632565 0.0243016349119 0.0335279677903 2.48789724769 0.03125046697 0.0383304148161 6.27176535722 0.03761069131 0.0469765765097 14.3896042358 0.0144426413712 0.0187208111415 1.52071434335 0.020828843338 0.0277172151141 2.27784771115 0.0274938284333 0.0382522082333 6.0662709577 0.0320415402528 0.0481875442423 13.1936476403 0.0171949431053 0.0211891868511 1.85057683645 0.0234791936125 0.0304814969617 2.18021083544 0.0339406564698 0.0448177249976 6.60820492231 0.0325393093742 0.0445476517029 14.0586009044 0.0167345758811 0.0213694913179 1.72709404926 0.0240291345985 0.0320355335893 2.39218616762 0.0298356749172 0.0411849794421 6.08344354667 0.0345061233445 0.0459836865054 14.3638442979
0 0 0 0 0 0 0 1 0 0
0.021200859502 0.0266373240436 2.27316074805 0.0229612196773 0.0327214164488 2.31334288249 0.0269518166693 0.0389157112494 5.69478897394 0.0312655274606 0.046163378458 12.9329069832 0.0182073986014 0.0266796828296 2.07597668745 0.0312747162886 0.0521475317509 3.22113420348 0.0227857841847 0.0342037057876 4.4536175481 0.029714514911 0.0434809608062 12.2165282629 0.0168984907689 0.0223122893717 1.72045264285 0.0273303149916 0.0394095009739 2.67049377741 0.0289599505211 0.041086795377 5.70731188632 0.029871741556 0.0444582298361 11.7437857895 0.0158157545414 0.0223294362522 1.6445744764 0.0192397014022 0.0291114426702 1.97936928043 0.0223046301406 0.0322710222081 4.84756601546 0.0315395105106 0.0497604656503 13.6509881383 0.0169255859336 0.02109324621 2.01761447121 0.0232692955415 0.029532174415 2.49491599454 0.0296093183616 0.0370118100109 6.21113498389 0.0380521022958 0.048157322422 13.5269282781 0.0131905685987 0.0167232359143 1.57857387471 0.0231577185045 0.0318897432868 2.24817548806 0.02819135715 0.0406667194171 6.24408570066 0.0323826338429 0.0467149517036 13.2154864735 0.0163550995542 0.0213216204347 1.89071797891 0.0270302644393 0.0362806634074 2.43692539505 0.0300068644276 0.0460082149381 6.2489542752 0.0308661655241 0.0428045663876 13.3517368388 0.0172238618387 0.0212460288721 1.8021493646 0.0223087646102 0.0309336004024 2.15360587968 0.027090146611 0.0378220645834 6.07545448068 0.0316186233609 0.0476026123704 14.0470439062
0 0 0 0 0 0 0 1 0 0
0.0248950129207 0.0298262651148 2.44617136452 0.0265756888985 0.0354780097493 2.70615092983 0.0285962932269 0.0354430043044 5.9328023935 0.0331933505609 0.046563464644 14.0310183582 0.0223891649382 0.0365147525807 2.5034662133 0.0240953518082 0.0446301707383 2.57561613679 0.0247259369476 0.0379213977343 5.07866766165 0.0289371108251 0.0422258487923 11.9782486192 0.017071686206 0.022114586608 1.84789468257 0.0207628616019 0.0269591660527 2.22508666834 0.0257090432569 0.0404298643707 5.6988922981 0.0325284831763 0.0470327914655 13.5962138723 0.0151937973016 0.0224075536646 1.69796085484 0.0217177690339 0.034019395329 2.19589975693 0.0203365339304 0.0268315565357 4.64064021636 0.0315253291878 0.050581742658 12.2227258482 0.0208952339249 0.02646786653 2.40003822332 0.0251042499697 0.0327334175966 2.64778410444 0.0299294150012 0.0378903343707 6.41642296823 0.0370037110742 0.0466099610322 13.5231290028 0.018753989927 0.0260403476599 2.36264664239 0.0274425472856 0.036758548034 2.59588455509 0.0277643234039 0.0367306539153 6.0115467467 0.0344100106319 0.0463836202215 14.9931027698 0.0161519730806 0.0217798559736 1.85541533168 0.0306367613704 0.041323612957 2.77505597433 0.0312719485429 0.043160877625 7.14932265025 0.0314524270476 0.0430859823625 14.0608214048 0.0225311144263 0.0304177484245 2.6020208181 0.0251860546612 0.0344312543465 2.78499642888 0.0290731875049 0.0384174909964 6.27508981618 0.0348729987617 0.0454719017893 13.6370646392
0 0 0 0 0 0 0 1 0 0
0.0225794194825 0.0304828400879 2.51698665807 0.0230949313428 0.0288571549231 2.55565004759 0.0264642922793 0.0380816395816 5.62639602385 0.0320648377126 0.0465590266673 13.4935229442 0.0237512370758 0.0330184453149 2.77306110069 0.0241401462209 0.0313791519793 2.70222407784 0.0297196746049 0.0399709644475 6.30831031022 0.0327100370255 0.0448974064553 13.7215480159 0.01818462394 0.0236457578628 2.02771519494 0.0232215055201 0.0360244277896 2.3388167043 0.0260050134522 0.0345164795847 5.36598918061 0.0346100429164 0.0476803873333 14.738434006 0.0180158133555 0.0258929220764 2.29260447211 0.0239778810847 0.030594987289 2.33298302446 0.0295177795121 0.0421060157716 6.35545216865 0.0329758177495 0.045224450091 12.4620176556 0.0158319007119 0.0218042915216 2.12864292871 0.0211509895257 0.028328078828 2.06081111429 0.0259102393044 0.0353303146683 5.69493382951 0.0368575245079 0.0488849769494 14.6194350125 0.0172125903492 0.0252549822255 1.9949812034 0.0179850578185 0.0245896576056 1.68767349277 0.0279401862523 0.0408853973544 5.31314761521 0.0307727529901 0.0467644002188 11.7986009554 0.0153273674535 0.0192254029525 1.68904243663 0.0243606863346 0.0333692229512 2.43868244101 0.0289952054503 0.0411871050731 6.20565411907 0.0333208186045 0.0459822164692 14.0737853541 0.0188826194668 0.0289420717995 2.1872367549 0.0220297227112 0.0325679713208 2.35508226127 0.0237369391494 0.0348373152128 5.22212661286 0.0325900024871 0.0474545571965 13.2020981105
0 0 0 0 0 0 0 1 0 0
0.0204672896081 0.0298049959665 2.34044785713 0.0211052311023 0.0289975520871 2.0932455281 0.0277797955942 0.0404178228875 5.46386101436 0.0313920376976 0.0456534136396 13.0379292893 0.019995409818 0.0340465746118 2.37337943129 0.0222324178011 0.034971981313 2.54115503002 0.027426039396 0.0403129965353 5.78757570483 0.0295629208842 0.0438772413509 12.273430338 0.0191178879734 0.0257642366403 2.10937590768 0.0248852955184 0.0327614007409 2.37638551625 0.0282702979143 0.0385888163966 5.89447039772 0.0348002523166 0.0464166849403 13.7349742647 0.0162543699035 0.0230515433319 1.96289795721 0.0176229616025 0.0250475694598 1.78432486225 0.0226159622396 0.0341130047049 4.60438985044 0.0309339219618 0.0496164911282 12.7152480136 0.0199945231968 0.0284859184274 2.36760808944 0.0232262978273 0.0303964335839 2.58687733466 0.0262769673413 0.0352801047539 5.62232276678 0.0372091371594 0.0477194169788 14.8765749451 0.0181744362972 0.0293174009587 1.89375861708 0.0205741676918 0.0297114080432 2.18754926208 0.0262764743863 0.0387905004656 5.47800858466 0.0328198558376 0.0463185970041 12.4318437798 0.0140299638597 0.0209187995445 1.58284586194 0.021633079147 0.0294414831382 2.43180357788 0.0296173962472 0.0422510254231 6.53644001425 0.0310687838814 0.0459854268518 12.6013964582 0.01846696752 0.02635054635 2.20969248761 0.0219207133539 0.0302232298855 2.49515515347 0.0290069643264 0.0412718833869 5.73037065881 0.0324229200733 0.045603732575 13.5013268262
0 0 0 0 0 0 0 1 0 0
0.0223978082092 0.029737203909 2.37861021064 0.0270871564844 0.0374848874046 3.03573598868 0.0332895892513 0.0424568161153 7.27091749505 0.0310669323232 0.043124102263 12.6519850504 0.0274509622465 0.0337119086269 2.7189377965 0.0276971592173 0.040144075113 2.95897984305 0.0307264521469 0.0396885247599 6.89386688396 0.0322518031775 0.0431130368571 13.5623756301 0.0204039010989 0.027909570476 2.39500007778 0.025566333907 0.0350094391399 2.90386845458 0.0264566451262 0.0359572266855 5.93710061949 0.0341458055739 0.0467516953662 12.7290843241 0.0235287756166 0.0324437269052 2.84675988003 0.0269323091964 0.0451613453481 3.03226303011 0.0291191114375 0.0485723074784 6.83992680493 0.0261395606918 0.037157276194 10.9890797708 0.01702308425 0.0240816288242 2.05088829669 0.0232832941906 0.0300287924102 2.43838524889 0.0247173620163 0.0337898284446 4.94209154504 0.0350253724614 0.0489085245644 13.3280539175 0.0221882821492 0.034580546766 2.71007131899 0.0212242727872 0.0275295290286 1.99188434428 0.023437659002 0.0316558202644 4.90111783493 0.0342946330539 0.0484134853035 13.8504045089 0.0197367342615 0.0299772029136 2.34482882708 0.0235094197486 0.0316117770727 2.42866628235 0.0280354615053 0.035457117515 6.04676738016 0.0327490059649 0.0472254746513 13.1310414317 0.0276234762614 0.0343719640102 3.2036081972 0.028677232849 0.0361963580091 2.79715922769 0.0300708508778 0.0381035454841 6.30290356674 0.0307847460242 0.0445476282572 12.9386255295
0 0 0 0 0 0 0 1 0 0
0.0261662960085 0.0321026258439 2.86193862593 0.0228955090074 0.0357300109295 2.73928411339 0.0286015730976 0.0373404901506 6.3081501852 0.0327078700106 0.045380327943 12.9032547192 0.022873422857 0.0292767652265 2.0825056631 0.0284495309166 0.0429521969158 2.91038701277 0.0289682729751 0.0385110404053 6.21610857591 0.0322048689976 0.0437753145766 12.4438248229 0.0220583546099 0.0299983903174 2.53731019194 0.0226337899475 0.0301846552174 2.38625841581 0.0264481249101 0.0353687508618 5.49561518564 0.0328957201356 0.0474879443281 13.0659786355 0.0202302072357 0.0273755168465 2.23961220816 0.0241907372396 0.0322572053849 2.47420610186 0.0288803379855 0.038527987981 6.31071187056 0.0327193785548 0.0462995016057 12.9769240909 0.0168165699341 0.0229138845473 2.10105958836 0.0250138529064 0.0355616602321 2.56237353842 0.0233284869039 0.0301199341467 4.65261675031 0.0358038590191 0.0493184414895 13.718020094 0.0185232061243 0.0268637182292 2.05859310342 0.0218032247792 0.0325823400183 2.35799015505 0.0242809790434 0.0347886319545 4.84495877654 0.0317513433738 0.0477743845294 13.4461694972 0.0151002232929 0.0218537646434 1.74538785242 0.0270699124885 0.0409773694867 2.48083317895 0.0264983561412 0.0342598929343 5.95724714231 0.0305227074488 0.0469817011358 12.1607438501 0.0162814358162 0.0203244070647 1.79110026002 0.0225435265147 0.0291523833579 2.31199234995 0.0291440723752 0.0391098514108 6.0411556101 0.0340714662098 0.0474637477466 13.803640383
0 0 0 0 0 0 0 1 0 0
0.0227000147624 0.0276745912225 2.19974997988 0.0241928590601 0.0342497153345 2.37098800226 0.0243098545704 0.0333340562658 4.91319857697 0.0330401568834 0.0478855111679 13.3170492794 0.0240302268441 0.0302326362386 2.51521199648 0.0276009834434 0.0365310938225 2.89158904344 0.0266138762186 0.036156307464 5.94717772422 0.0322815697966 0.0460169617768 13.4120513079 0.0209140985951 0.0280430868237 2.43756426147 0.0253943117752 0.0337166866737 2.72433652752 0.0271327344098 0.0372931202935 5.49345699701 0.0326263800336 0.0464449943805 13.0264129338 0.025772084406 0.0388072377046 3.19773556513 0.0272725501647 0.0388059429648 3.26906052197 0.0268460233809 0.0381304564765 5.85486888986 0.0302576316919 0.043051036583 12.578552389 0.0155416288621 0.0193362285916 1.76770794012 0.0237549001666 0.0328982335977 2.32250116953 0.0293567837474 0.0408755551145 6.63422097041 0.0342122491469 0.0461939601342 13.0805618573 0.0205710956096 0.0262695017538 2.55963720414 0.025608423064 0.0394009009225 2.68798059503 0.0265269931 0.0370551309453 5.83244472448 0.0314832965905 0.0456745283465 12.2504670427 0.0131419426222 0.0171165961182 1.49640241867 0.0213293537464 0.0284014584873 2.05020043746 0.0260657092428 0.0370547913721 5.71565409474 0.0303680260739 0.0487021495911 13.0156881516 0.0211652843685 0.0255714120961 2.3569794878 0.0258065488403 0.0331336876035 2.51634820761 0.0300706242962 0.039959730436 6.17426427857 0.0334814108735 0.0457931076951 12.8920906503
0 0 0 0 0 0 0 1 0 0
0.0173505292919 0.0249838871891 1.89117823521 0.0173505292919 0.0269247182088 1.95745784626 0.0247248208887 0.0416736623177 5.70212276181 0.0273513861588 0.0461270257054 10.8212511636 0.0278985094832 0.0354955424753 2.84710535211 0.0302580849121 0.0376487081793 2.83669546051 0.0307195099517 0.0412648593159 7.03702512312 0.0324094625091 0.0425746325334 13.7098272348 0.0188412840102 0.0250442373777 2.20985907374 0.0266758518246 0.0364476538687 2.88686792292 0.0266606533907 0.0347508074766 5.82138603398 0.0340952727032 0.0473351106327 12.9270368938 0.0215237152353 0.0267608998894 2.56080677189 0.0277955262973 0.0389452742095 3.12823023772 0.0271750256354 0.0358763309933 5.62650958734 0.0346868431722 0.0461687961076 12.8977820842 0.0194128818223 0.028285476591 2.36528621808 0.021022637077 0.0285100680963 2.0260877894 0.0263924798796 0.0354619627391 5.42100542999 0.0351239653504 0.0479722304096 14.1514734271 0.0193784286389 0.0257581797945 2.24157998989 0.0229625267257 0.0359947717667 2.36459352592 0.0241406629599 0.0336285148482 5.48319506553 0.0348538352086 0.0477296341141 13.1191658148 0.015745532351 0.0198831828541 1.9170696856 0.0262561864139 0.0364007734519 2.83726313468 0.0264029466858 0.0355631807686 5.92114275346 0.0323703606645 0.0476536892912 13.7231516374 0.0194285887259 0.0255978904601 1.96260337333 0.0244831809148 0.0327814214175 2.649711999 0.0288164748288 0.0379231503965 6.36084589728 0.0341974752777 0.0467095522222 12.6246337717
0 0 0 0 0 0 0 1 0 0
0.0220005705745 0.0268533433132 2.12148359111 0.0243164201087 0.0374902720267 2.74180043062 0.0244463255822 0.0359676799834 5.59692190961 0.0331249192297 0.0464202616936 13.5601261116 0.0219923883996 0.0277555146518 2.28442062601 0.0268451689384 0.0350273168935 2.84197413473 0.0292036938438 0.0385223179128 6.23133817392 0.0337629624726 0.0457386976647 12.320383783 0.0177692153369 0.0248936380804 2.12668913443 0.0234880432614 0.032100118225 2.34625127796 0.0286678095773 0.0382826715719 6.38887771372 0.0333428092384 0.0467763205079 12.8214079629 0.0215738449939 0.0339162295391 2.63931896777 0.0248945567671 0.0353648621341 2.55037133099 0.0255165044828 0.0365213546021 5.06823190325 0.0310669836831 0.0454552817323 13.1788053115 0.0157882516082 0.0203171801441 1.84732892997 0.0227337024249 0.0293938724599 2.27854483333 0.0253933786147 0.0330696587065 5.98427532051 0.0371765604146 0.0496722788188 14.1249081303 0.0183305853998 0.0245222170521 2.12916322633 0.0189755045073 0.0256606058484 1.91150302757 0.026835415827 0.0354348655318 5.86958948139 0.033920264593 0.0488934252256 13.0596119256 0.0165373336207 0.0240421225164 1.99333932035 0.0216068138675 0.0295140292696 2.24435241995 0.0296517826057 0.0413587118964 6.17832477357 0.0339605958282 0.0459976783519 14.4406359652 0.0215712140757 0.0269056297922 2.4889862395 0.0216837106289 0.029444844589 2.42570692833 0.0279409103138 0.0364766387447 6.33592457364 0.0349161176988 0.0476480093963 14.0817560466
0 0 0 0 0 0 0 1 0 0
0.0248744096356 0.0353048202075 2.75887181789 0.0209852511258 0.0277011909902 2.1998052821 0.0270994545437 0.0371365532116 5.88252958832 0.0298979060441 0.0462636462362 11.831549404 0.0199794830234 0.0278130114808 2.20841178856 0.0251780281207 0.0385845627684 2.99401282006 0.0235643347422 0.0393550556933 5.10652027039 0.0310166925771 0.0446468375824 12.2262797569 0.0173066341453 0.0240440605326 2.01592595038 0.0218595231934 0.0311882114917 2.34042534061 0.0247152304207 0.0336367844295 5.6044184516 0.0315450169757 0.0487843351314 12.7339499275 0.0211632380695 0.031423676205 2.81673926378 0.020742897417 0.0351328271749 2.26161546727 0.028029678228 0.0453621295939 5.97326787411 0.02925022671 0.041821420227 11.9536657515 0.0176994596591 0.0238887680991 2.31393797925 0.0247026941356 0.0324814787317 2.54281030243 0.0280152030637 0.0382312814356 5.83765879505 0.0359989010016 0.0468624366391 14.1784464613 0.0179390882194 0.0245556715105 2.1331206719 0.0197842515791 0.0267708240964 2.10656150233 0.0275508372628 0.0371068238097 5.62812009236 0.032947348779 0.0481140378702 13.4613054197 0.0153382327308 0.0199637645841 1.630944777 0.018867109686 0.0247646533922 1.73077484876 0.0272402800063 0.0431879265904 5.91975389933 0.0297865074575 0.0463440917835 12.3069583813 0.0197766889529 0.0257933524693 1.96525369174 0.020945178699 0.0285582366169 2.25883674045 0.0303026095766 0.0400332989925 5.82813994004 0.0340176577336 0.0464949818976 13.3908924904
0 0 0 0 0 0 0 1 0 0
0.0193356144551 0.0261124053734 2.13095879565 0.025241991861 0.0388937893634 2.63921811453 0.0248388244896 0.0356137125598 5.45025356832 0.0273869394452 0.0463736879149 11.3915368441 0.0212710219745 0.0286692158484 2.00335568596 0.021984515374 0.0325294566216 2.4314517257 0.0284105584417 0.0391616089837 6.32379300277 0.0303903594877 0.0457874999631 12.5418761642 0.0175321224028 0.022820040666 1.87131530218 0.0213864605964 0.0290674525842 2.10155231817 0.0286290604926 0.0394928938462 5.77404977416 0.0327789292394 0.0470326613879 13.2514193647 0.0262283750489 0.0350096650482 2.95893764025 0.0276104690635 0.0367990943803 2.86470395744 0.0322875241344 0.0432269737482 7.80053552579 0.0312594066701 0.0418818004045 13.1503104362 0.0188280071609 0.0276506185361 2.35959804768 0.0222229017163 0.0306044312796 2.46788347747 0.0237296039878 0.0317087576944 4.88129680868 0.0371097094507 0.0490439975555 14.0610093893 0.0198434068486 0.0263455673109 2.26443041948 0.0240881867329 0.0314229337663 2.34613304115 0.0269671301648 0.0350032924315 5.76031446969 0.0349490007511 0.047961918977 14.4684073645 0.0155737107445 0.019386675405 1.83745164318 0.0227142263428 0.0322444468774 2.22156213743 0.023931026112 0.0344605156646 5.31984360024 0.0317075826266 0.0488434527749 12.2435220043 0.0218782329955 0.0281425581775 2.57304829846 0.0262080346361 0.035851546845 2.79845267798 0.0275726985117 0.0374614844388 6.59961813822 0.0350841279993 0.0459599573234 13.7343854981
0 0 0 0 0 0 0 1 0 0
0.0237666445899 0.0295547103315 2.57062777744 0.024454109516 0.0317722563434 2.53379929925 0.0285416666667 0.0387662376374 5.89583333333 0.0310832355897 0.045947616359 13.1183039301 0.019658333007 0.0249796845532 1.68072090889 0.0236521252658 0.0325025702493 2.5327299241 0.0243181014593 0.0319988369306 5.06914747193 0.0298868787364 0.0490027562754 12.8200731506 0.0228242663438 0.0309872468098 2.58110355724 0.0222129020668 0.0302336350734 2.53143020973 0.026766564232 0.0369541555026 5.64691647829 0.031536207292 0.0467114331853 13.087016556 0.0200405624945 0.0262487584921 2.41211372172 0.023026884444 0.0301431133637 2.42528867149 0.0267993037739 0.037174782685 6.02596164232 0.03489165866 0.0473597925258 13.9830133636 0.0163180271936 0.0258789036219 2.03163093669 0.0192096238491 0.0256966204208 1.70998142107 0.0247025712443 0.0368444112566 4.79520500624 0.0325913808434 0.0481878566081 13.0109665804 0.0161051958777 0.0261318643568 1.79065050129 0.0171284247355 0.0259788213753 1.79224929638 0.0243061552788 0.0372613021952 4.85670898036 0.0312990785538 0.0479550585339 11.8918378827 0.0102401723423 0.0151826848607 1.21951696155 0.0209911371292 0.0360502328142 1.76679458079 0.0265556825391 0.0422824189427 5.66415165298 0.0278868351316 0.0453530435156 11.4563448295 0.0184314741759 0.0238411570758 2.08709339933 0.0254623751985 0.0344375171162 2.21522664227 0.0289700114264 0.0385692786471 6.34227194819 0.0340867280882 0.0463783663651 14.0650875128
0 0 0 0 0 0 0 1 0 0
0.0155967180144 0.0231363258711 1.77128016568 0.0212109636173 0.0310446030766 1.8851405038 0.025307928499 0.0401124304893 5.38515045192 0.0276057612238 0.046411911776 11.4741144511 0.0239072015396 0.0307257256775 2.47168079662 0.0274313706909 0.034874555276 2.5431166578 0.0273442525781 0.0349135539522 5.88473908624 0.0331462395848 0.0467309212676 13.1656292144 0.0189045511813 0.0286440144045 2.38328252164 0.0204703049112 0.0262956280605 1.93473258017 0.022860029891 0.032679790713 5.22041770337 0.0311931511516 0.0492073578719 11.8432585405 0.018000132719 0.0247731731222 1.89383271693 0.0252416738024 0.0364412979451 3.03239532867 0.0278629536296 0.0386438859785 6.26666430163 0.0339682965533 0.0458392713288 13.838132414 0.0183167238739 0.0225252928316 1.98235436458 0.0232892291211 0.0288789544354 2.12129201119 0.0280566606822 0.0377815757912 5.81095341259 0.038208960774 0.0477939733867 15.3875105557 0.0199173038938 0.0266190377458 2.2978738303 0.0259011255739 0.03552350549 2.49493718852 0.0336258416681 0.0441528932135 6.80653758146 0.0322541413802 0.0431968886677 12.4408831038 0.0161701622436 0.0218995449194 1.86067620337 0.0269502704059 0.0392104428083 2.75557285356 0.0294987567445 0.0428040132125 6.75547634544 0.0299701774185 0.0437376192374 11.4653095579 0.0130796023384 0.0169425352257 1.4506468048 0.0235432842091 0.0306431815146 2.17121398817 0.0256160285302 0.0366010034611 5.3474160214 0.0317001998492 0.0485489761772 12.8893535771
0 0 0 0 0 0 0 1 0 0
0.016936016877 0.0286771398219 1.73615449392 0.0211345604243 0.0386434776455 2.39146770976 0.0236101318111 0.0409149159601 5.07306910368 0.0277018768515 0.0437880575168 12.0424441613 0.0189748637556 0.0266607474491 1.94545653674 0.0214622054465 0.0329226596002 2.45180823809 0.0252767010538 0.0337268439081 5.31790633999 0.030985170777 0.0481238931396 11.7633495249 0.0143694185426 0.0220786268967 1.71333555843 0.0231346111499 0.0356309642417 2.60207111547 0.0240682570994 0.0367425389153 5.35300065366 0.0305178352363 0.0471069889269 12.2017894649 0.0157713209034 0.0221692314263 1.76864813048 0.0245320546456 0.0341206316828 2.30419298424 0.0282937120129 0.0389529415199 5.69516145203 0.0324577184478 0.0464838081991 13.8251579055 0.0134271635858 0.017678608929 1.6796165435 0.0209491104473 0.0267738831346 2.22105018609 0.025865350802 0.035758598579 5.7318915998 0.0359124118824 0.0493624466495 13.8801899309 0.0171447002368 0.0235056639948 2.0848027223 0.0225069025075 0.0344375990789 2.40492081773 0.0239799644493 0.0325463028964 5.55717605543 0.0332940753029 0.0486732606231 13.5606329331 0.0126641992897 0.0179314686038 1.58920733122 0.0182348851027 0.027815466308 1.561874527 0.0263862450248 0.0393077681903 5.2211080581 0.030918607824 0.0478223125771 12.7273250519 0.0211679786772 0.032442964229 2.53624858157 0.0278631537512 0.0471517448642 2.84595054233 0.0240678978322 0.0409243632851 5.67253987777 0.026600291387 0.0409508648903 11.0350116116
0 0 0 0 0 0 0 1 0 0
